0.17125
0.15
0.055
0.045
0.0475
0.06
0.07625
0.095
0.10375
0.1025
0.095
0.09375
0.0975
0.11
0.13125
0.1575
0.17625
0.1825
0.17625
0.1625
0.1525
0.155
0.17625
0.2
0.2175
0.2225
0.21875
0.205
0.19125
0.18375
0.1875
0.20125
0.22375
0.2475
0.265
0.27625
0.2825
0.29375
0.30625
0.32
0.33
0.3325
0.3275
0.3175
0.3075
0.3025
0.29875
0.3075
0.32125
0.33125
0.3325
0.32875
0.3225
0.29375
0.29125
0.29875
0.30875
0.3175
0.315
0.305
0.29375
0.28125
0.265
0.24875
0.22625
0.20125
0.1725
0.1425
0.115
0.0925
0.07
0.04875
0.03625
0.02375
0.0025
-0.02625
-0.05875
-0.08375
-0.10125
-0.1125
-0.1225
-0.135
-0.15125
-0.1675
-0.195
-0.23125
-0.2625
-0.275
-0.28
-0.29
-0.3075
-0.32
-0.33125
-0.34375
-0.3575
-0.36625
-0.36625
-0.35625
-0.3425
-0.335
-0.33875
-0.35
-0.3625
-0.375
-0.38125
-0.3775
-0.365
-0.355
-0.3475
-0.34875
-0.355
-0.3625
-0.365
-0.36625
-0.3625
-0.3575
-0.35625
-0.35875
-0.36625
-0.37375
-0.38
-0.3775
-0.3725
-0.36875
-0.36375
-0.35375
-0.3375
-0.3175
-0.29375
-0.26875
-0.245
-0.22625
-0.21125
-0.20375
-0.2125
-0.235
-0.26375
-0.28875
-0.3075
-0.31875
-0.32875
-0.34125
-0.3475
-0.34375
-0.32875
-0.30625
-0.27875
-0.2425
-0.19625
-0.145
-0.09625
-0.05375
-0.02625
-0.0225
-0.03625
-0.06
-0.0875
-0.11625
-0.1375
-0.15
-0.1575
-0.1475
-0.11375
-0.0625
-0.01875
0.00125
0.0075
0.005
-0.01125
-0.0775
-0.13125
-0.1875
-0.25375
-0.325
-0.39625
-0.45875
-0.5025
-0.52625
-0.5375
-0.5425
-0.53625
-0.5225
-0.50125
-0.475
-0.4575
-0.44875
-0.435
-0.4125
-0.38625
-0.3625
-0.335
-0.31
-0.29625
-0.28625
-0.27
-0.24125
-0.2075
-0.17625
-0.155
-0.1425
-0.13
-0.11625
-0.09875
-0.08125
-0.0725
-0.075
-0.09125
-0.10875
-0.11625
-0.115
-0.11125
-0.10875
-0.09125
-0.07125
-0.05125
-0.0425
-0.0425
-0.06375
-0.0725
-0.075
-0.07875
-0.08125
-0.08
-0.0775
-0.0775
-0.07875
-0.0725
-0.06625
-0.065
-0.06875
-0.0725
-0.0725
-0.07
-0.0675
-0.05625
-0.04125
-0.03
-0.03125
-0.03125
-0.025
-0.02
-0.02
-0.01875
-0.01875
-0.0175
-0.0175
-0.02375
-0.03875
-0.04375
-0.03875
-0.02125
0
0.015
0.02375
0.02625
0.03125
0.0325
0.02875
0.02875
0.0375
0.05625
0.07375
0.08125
0.075
0.065
0.06125
0.06625
0.07875
0.08875
0.09
0.08625
0.08125
0.0825
0.0825
0.085
0.09125
0.0975
0.09875
0.085
0.065
0.05375
0.055
0.065
0.07375
0.075
0.07375
0.07375
0.07
0.06375
0.05875
0.06375
0.075
0.0825
0.085
0.08375
0.08125
0.08
0.08
0.08625
0.095
0.1025
0.1025
0.1025
0.1
0.09875
0.0925
0.08125
0.07625
0.07625
0.08
0.0775
0.06875
0.05375
0.03375
0.02
0.02125
0.03375
0.0475
0.05875
0.06625
0.0725
0.075
0.07
0.0625
0.06
0.06625
0.07875
0.08625
0.09
0.08875
0.0825
0.08375
0.11125
0.1175
0.10625
0.08875
0.07625
0.07
0.07125
0.0875
0.11125
0.12875
0.1325
0.11375
0.1025
0.09125
0.08375
0.08875
0.1
0.10875
0.11125
0.1075
0.09625
0.08375
0.07875
0.08375
0.0875
0.08375
0.07125
0.0575
0.04375
0.03875
0.0425
0.05125
0.05875
0.0575
0.04125
0.035
0.02625
0.01875
0.015
0.0225
0.02375
0.025
0.02875
0.015
0.00875
0.00625
0.00875
0.015
0.0225
0.01875
0.01
0.00375
0
-0.00125
0.00125
0.01
0.01875
0.0225
0.02375
0.02375
0.02875
0.0425
0.0675
0.09625
0.1575
0.18375
0.21125
0.24
0.27125
0.3075
0.3475
0.3925
0.43
0.45
0.4525
0.4425
0.4425
0.42375
0.37125
0.295
0.20375
0.11625
0.03625
-0.0325
-0.08625
-0.12
-0.13375
-0.1375
-0.1375
-0.1325
-0.13
-0.125
-0.10875
-0.085
-0.06375
-0.04875
-0.04
-0.03375
-0.03125
-0.02375
-0.00875
0.00625
0.0225
0.0275
0.02375
0.01875
0.0075
0.0025
0.00625
0.01875
0.04125
0.06125
0.0675
0.07375
0.07625
0.0725
0.05875
0.0475
0.04125
0.0425
0.04375
0.0425
0.04
0.045
0.0575
0.07125
0.075
0.075
0.07
0.06625
0.065
0.06375
0.065
0.07625
0.08875
0.1
0.10625
0.10875
0.10875
0.10875
0.10625
0.10875
0.1125
0.1175
0.11875
0.12
0.12875
0.14125
0.15375
0.165
0.17875
0.18375
0.1825
0.1725
0.16
0.15375
0.1575
0.19125
0.205
0.21
0.20875
0.20375
0.19875
0.1975
0.19875
0.2075
0.22125
0.2325
0.24125
0.25375
0.27
0.28375
0.29
0.2975
0.30875
0.315
0.31625
0.31875
0.32125
0.3275
0.3325
0.3475
0.36875
0.3875
0.4025
0.40375
0.39625
0.38125
0.3725
0.3675
0.36875
0.3825
0.4025
0.41875
0.41875
0.405
0.39
0.37375
0.36125
0.35
0.3425
0.3375
0.33375
0.3325
0.3225
0.30625
0.28875
0.27375
0.26875
0.2625
0.24125
0.20875
0.1775
0.15875
0.15625
0.16
0.15875
0.14875
0.1275
0.1025
0.08375
0.07125
0.0525
0.03125
0.015
0.0075
0.005
0.005
0.00875
0.015
0.01625
0.0075
-0.01375
-0.045
-0.07
-0.085
-0.09125
-0.09125
-0.0875
-0.08125
-0.07375
-0.0675
-0.06
-0.05125
-0.045
-0.04875
-0.055
-0.0525
-0.05
-0.0525
-0.05625
-0.06
-0.07
-0.08375
-0.09
-0.09125
-0.09125
-0.0975
-0.09875
-0.0975
-0.09375
-0.0875
-0.07875
-0.075
-0.07625
-0.07375
-0.065
-0.05375
-0.04
-0.03125
-0.035
-0.04625
-0.05875
-0.06125
-0.06625
-0.0775
-0.0875
-0.0925
-0.09125
-0.09
-0.08625
-0.08125
-0.07625
-0.0725
-0.06125
-0.04625
-0.03375
-0.02875
-0.035
-0.05
-0.06125
-0.0675
-0.06625
-0.05625
-0.05125
-0.05
-0.05
-0.04375
-0.04125
-0.0425
-0.04625
-0.04875
-0.045
-0.03875
-0.03125
-0.02125
-0.01375
-0.01125
-0.01375
-0.02125
-0.03375
-0.05
-0.065
-0.07375
-0.075
-0.06875
-0.0575
-0.0475
-0.0325
-0.02875
-0.03
-0.03625
-0.04375
-0.0475
-0.04375
-0.04
-0.04375
-0.05375
-0.0625
-0.0625
-0.0575
-0.04875
-0.0375
-0.03
-0.03
-0.0375
-0.0525
-0.0675
-0.0775
-0.07625
-0.0725
-0.0675
-0.06
-0.0475
-0.03875
-0.03875
-0.045
-0.05
-0.05125
-0.0525
-0.05875
-0.065
-0.07
-0.0775
-0.08375
-0.08625
-0.07875
-0.065
-0.045
-0.045
-0.04375
-0.0475
-0.05375
-0.0625
-0.0625
-0.05625
-0.045
-0.03875
-0.03625
-0.0375
-0.04125
-0.045
-0.05
-0.06125
-0.065
-0.06625
-0.065
-0.05875
-0.035
-0.02375
-0.01375
-0.00875
-0.00875
-0.015
-0.02625
-0.045
-0.0625
-0.0675
-0.06375
-0.0625
-0.06625
-0.07
-0.065
-0.055
-0.04875
-0.0475
-0.05
-0.04875
-0.04625
-0.0375
-0.03125
-0.0325
-0.04375
-0.055
-0.0575
-0.0475
-0.0375
-0.03875
-0.04375
-0.0475
-0.045
-0.045
-0.0425
-0.0375
-0.02625
-0.01875
-0.02375
-0.035
-0.04375
-0.045
-0.03875
-0.0275
-0.02125
-0.02125
-0.0275
-0.0375
-0.045
-0.03375
-0.01875
-0.0075
-0.01
-0.0275
-0.0475
-0.0575
-0.06
-0.05375
-0.045
-0.04
-0.0425
-0.05125
-0.0575
-0.055
-0.04625
-0.035
-0.03125
-0.03375
-0.0375
-0.04125
-0.0425
-0.04125
-0.035
-0.0275
-0.0225
-0.01625
-0.005
0.0025
0.00875
0.01
0.015
0.0225
0.0325
0.0375
0.03875
0.035
0.0275
0.02
0.0125
0.0075
0.00375
0.00375
0.01
0.015
0.0175
0.0175
0.01375
0.01375
0.02125
0.035
0.0475
0.04625
0.03375
0.01125
-0.00875
-0.02625
-0.03875
-0.0425
-0.0425
-0.0425
-0.05375
-0.0575
-0.05625
-0.05
-0.04125
-0.0275
-0.01625
-0.01375
-0.0175
-0.03
-0.0325
-0.03
-0.02625
-0.0225
-0.02375
-0.02375
-0.03125
-0.0425
-0.04875
-0.055
-0.06
-0.065
-0.065
-0.0625
-0.0575
-0.055
-0.0575
-0.0675
-0.085
-0.09625
-0.0975
-0.085
-0.06125
-0.02625
0.01375
0.05875
0.1075
0.1575
0.2025
0.23875
0.27125
0.3075
0.35
0.39125
0.415
0.4125
0.395
0.38375
0.3825
0.38
0.36125
0.31875
0.255
0.18125
0.1125
0.04875
-0.01125
-0.07625
-0.14
-0.18625
-0.20125
-0.195
-0.15125
-0.12875
-0.11125
-0.1025
-0.09375
-0.08125
-0.065
-0.0525
-0.05625
-0.0675
-0.07
-0.06125
-0.04875
-0.015
-0.00125
0.00375
0.00625
0.00125
-0.00875
-0.01875
-0.02
-0.01375
0.005
0.0125
0.01
0.0025
-0.00125
0
0.0025
0.01
0.015
0.01625
0.015
0.02
0.0275
0.02875
0.0275
0.03875
0.0475
0.05
0.05125
0.055
0.06
0.06375
0.06375
0.06375
0.065
0.0625
0.0625
0.06
0.06
0.065
0.07875
0.0925
0.1025
0.10625
0.11
0.11375
0.125
0.13125
0.14375
0.15
0.15
0.14375
0.14375
0.1475
0.15875
0.1725
0.185
0.1875
0.18375
0.1775
0.17
0.18125
0.205
0.235
0.2575
0.2625
0.255
0.245
0.23875
0.2475
0.26625
0.2875
0.3
0.31
0.31625
0.32
0.32375
0.32375
0.32
0.3175
0.3225
0.335
0.34375
0.34875
0.3475
0.34375
0.3375
0.34
0.35375
0.3675
0.37375
0.3625
0.34
0.295
0.285
0.2825
0.28875
0.28625
0.275
0.2475
0.22
0.20375
0.19875
0.19
0.15125
0.13875
0.12875
0.1175
0.1
0.08
0.06375
0.05625
0.05625
0.04375
0.0175
-0.01
-0.03625
-0.0575
-0.075
-0.0875
-0.0975
-0.09125
-0.0825
-0.07625
-0.055
-0.05125
-0.06
-0.0725
-0.08625
-0.10125
-0.11375
-0.1225
-0.1325
-0.13125
-0.12875
-0.12125
-0.11375
-0.1075
-0.10875
-0.11125
-0.10625
-0.09625
-0.08875
-0.0875
-0.09375
-0.10375
-0.1125
-0.13
-0.1525
-0.16875
-0.16375
-0.14375
-0.1175
-0.10125
-0.1
-0.1075
-0.11625
-0.12
-0.12
-0.11125
-0.10125
-0.095
-0.09625
-0.1175
-0.1225
-0.1225
-0.12125
-0.11375
-0.09875
-0.08375
-0.07
-0.07375
-0.08
-0.07875
-0.07375
-0.06875
-0.0675
-0.07
-0.0825
-0.09625
-0.10375
-0.0975
-0.085
-0.0775
-0.0725
-0.07375
-0.0825
-0.09
-0.09125
-0.09
-0.09
-0.085
-0.0775
-0.07
-0.065
-0.06625
-0.06625
-0.06625
-0.07875
-0.09375
-0.1
-0.095
-0.08625
-0.08
-0.07625
-0.0725
-0.0675
-0.0625
-0.06625
-0.0775
-0.08875
-0.1025
-0.1075
-0.10625
-0.095
-0.08375
-0.07375
-0.07625
-0.08375
-0.08875
-0.09375
-0.09625
-0.1
-0.1
-0.1025
-0.105
-0.1025
-0.09375
-0.08875
-0.08125
-0.05375
-0.04125
-0.03625
-0.04125
-0.05625
-0.07875
-0.095
-0.10125
-0.10125
-0.09875
-0.09625
-0.1
-0.10375
-0.1025
-0.09125
-0.05875
-0.045
-0.03625
-0.03
-0.03375
-0.06375
-0.075
-0.07375
-0.06
-0.0475
-0.05125
-0.0725
-0.1
-0.115
-0.12125
-0.11625
-0.10375
-0.08375
-0.0675
-0.05875
-0.05625
-0.05125
-0.045
-0.0575
-0.06625
-0.06875
-0.07
-0.075
-0.0825
-0.09
-0.09
-0.085
-0.0775
-0.065
-0.055
-0.04625
-0.0425
-0.04875
-0.0575
-0.06625
-0.0675
-0.06375
-0.06
-0.065
-0.06375
-0.055
-0.04625
-0.0375
-0.03875
-0.04625
-0.0625
-0.075
-0.06625
-0.05875
-0.055
-0.06375
-0.07125
-0.07125
-0.0675
-0.0625
-0.06125
-0.0675
-0.07375
-0.0775
-0.075
-0.0575
-0.0475
-0.04
-0.04
-0.04
-0.0325
-0.02875
-0.03375
-0.04375
-0.05625
-0.07
-0.07875
-0.07625
-0.06375
-0.05
-0.04375
-0.05
-0.05375
-0.04875
-0.04125
-0.035
-0.0325
-0.03
-0.035
-0.04125
-0.05
-0.05375
-0.0525
-0.045
-0.0375
-0.03625
-0.04625
-0.065
-0.08
-0.085
-0.0775
-0.0625
-0.0475
-0.03625
-0.03
-0.02875
-0.03375
-0.04125
-0.04
-0.0275
-0.01
0.0025
0.00625
0
-0.025
-0.03375
-0.03
-0.01625
-0.0025
0.00125
0.005
0.005
-0.0025
-0.0175
-0.02625
-0.0225
-0.01375
-0.01125
-0.0075
-0.0075
-0.00625
-0.00375
0
0.00625
0.01375
0.02125
0.0225
0.005
-0.0025
-0.0075
-0.00875
-0.0075
0.005
0.02125
0.02875
0.0275
0.01875
0.00875
0.00125
0.00125
0.01
0.02625
0.0375
0.04125
0.03375
0.02
0.005
-0.00875
-0.02375
-0.0375
-0.04625
-0.05125
-0.05375
-0.06
-0.06375
-0.0625
-0.045
-0.035
-0.02875
-0.035
-0.05
-0.0625
-0.065
-0.05875
-0.0475
-0.03625
-0.035
-0.0425
-0.05875
-0.075
-0.085
-0.085
-0.085
-0.07875
-0.06625
-0.055
-0.04875
-0.04625
-0.04
-0.03
-0.01875
-0.0075
0.00625
0.035
0.0725
0.10625
0.14375
0.1875
0.24125
0.3025
0.36625
0.45875
0.475
0.4725
0.4675
0.4725
0.475
0.45875
0.4125
0.34625
0.27
0.19
0.10875
0.02375
-0.05625
-0.1775
-0.2025
-0.20625
-0.19375
-0.17125
-0.1425
-0.1125
-0.08375
-0.06375
-0.0525
-0.04875
-0.055
-0.06125
-0.06
-0.045
-0.0225
-0.0025
0.01125
0.01625
0.0175
0.01125
0.005
0.0025
0.0025
0
-0.00375
-0.00875
-0.0075
0.0025
0.0225
0.04125
0.0525
0.0575
0.05
0.03125
0.01125
0
-0.00125
0.00375
0.0225
0.04
0.04375
0.0375
0.03875
0.0525
0.04875
0.045
0.0475
0.06125
0.0775
0.08875
0.0925
0.08875
0.0825
0.0775
0.0775
0.0825
0.085
0.09
0.08625
0.07875
0.07375
0.07625
0.09125
0.11375
0.13875
0.15875
0.1725
0.17875
0.1725
0.155
0.13875
0.1325
0.13375
0.1325
0.1325
0.14375
0.16625
0.1875
0.20375
0.21375
0.22125
0.23375
0.24625
0.26
0.26625
0.2725
0.2775
0.2825
0.28625
0.28875
0.29125
0.29375
0.295
0.295
0.2975
0.3025
0.3125
0.325
0.34125
0.345
0.34875
0.35125
0.35
0.33625
0.33625
0.3425
0.35
0.35375
0.3525
0.34375
0.3325
0.3275
0.32875
0.33125
0.315
0.285
0.25
0.2525
0.2525
0.24125
0.22375
0.20875
0.1975
0.18625
0.17125
0.155
0.135
0.11625
0.10125
0.09375
0.08375
0.06625
0.0425
0.01875
0
-0.0325
-0.05
-0.0625
-0.0675
-0.0675
-0.06875
-0.07125
-0.07625
-0.08625
-0.095
-0.1
-0.095
-0.08625
-0.08
-0.07375
-0.07125
-0.06375
-0.05
-0.05
-0.055
-0.06625
-0.10125
-0.11625
-0.12125
-0.1175
-0.1175
-0.12
-0.12
-0.11
-0.09125
-0.0675
-0.08375
-0.105
-0.1175
-0.11
-0.10375
-0.10375
-0.10625
-0.10875
-0.11625
-0.1275
-0.1375
-0.1425
-0.13
-0.11875
-0.1125
-0.1125
-0.11875
-0.11875
-0.11375
-0.105
-0.09875
-0.09375
-0.0875
-0.07875
-0.07375
-0.07
-0.0725
-0.08125
-0.08875
-0.09375
-0.0925
-0.085
-0.085
-0.0825
-0.0775
-0.06875
-0.0575
-0.05125
-0.04875
-0.055
-0.07
-0.07125
-0.07125
-0.0775
-0.08375
-0.0875
-0.08875
-0.08625
-0.0925
-0.1125
-0.1125
-0.1075
-0.11125
-0.11375
-0.11
-0.105
-0.10125
-0.105
-0.11
-0.1125
-0.115
-0.12625
-0.14
-0.14625
-0.1475
-0.1425
-0.1325
-0.12125
-0.115
-0.115
-0.12
-0.12875
-0.13125
-0.1275
-0.1175
-0.10875
-0.11125
-0.13875
-0.16125
-0.16875
-0.165
-0.1575
-0.1675
-0.185
-0.2
-0.2075
-0.205
-0.2025
-0.19875
-0.195
-0.1975
-0.2075
-0.2125
-0.21
-0.1875
-0.18
-0.18125
-0.18375
-0.19
-0.19625
-0.20125
-0.2025
-0.195
-0.19125
-0.19625
-0.2075
-0.22
-0.21375
-0.205
-0.195
-0.185
-0.185
-0.1925
-0.20625
-0.215
-0.21875
-0.21375
-0.20375
-0.20125
-0.20125
-0.2025
-0.20375
-0.20875
-0.2125
-0.2125
-0.20625
-0.19625
-0.17875
-0.1675
-0.16375
-0.16625
-0.16625
-0.17125
-0.18
-0.1925
-0.21375
-0.23375
-0.245
-0.2375
-0.20125
-0.18625
-0.1775
-0.17375
-0.18875
-0.19375
-0.1975
-0.20625
-0.22
-0.23375
-0.2425
-0.24125
-0.23625
-0.22375
-0.1925
-0.185
-0.18375
-0.1825
-0.18
-0.1775
-0.1775
-0.1775
-0.1675
-0.15875
-0.16625
-0.175
-0.1775
-0.17375
-0.1675
-0.15875
-0.1525
-0.15125
-0.1575
-0.16625
-0.17375
-0.17625
-0.1725
-0.1625
-0.1475
-0.12875
-0.11875
-0.12625
-0.1475
-0.18125
-0.1775
-0.16875
-0.15875
-0.1575
-0.17125
-0.165
-0.15
-0.13625
-0.13
-0.125
-0.12125
-0.12
-0.12125
-0.1325
-0.125
-0.1125
-0.10375
-0.04375
-0.04375
-0.0525
-0.06625
-0.07375
-0.06125
-0.04625
-0.02875
-0.02375
-0.03875
-0.06625
-0.0925
-0.1075
-0.095
-0.075
-0.06125
-0.055
-0.06125
-0.08
-0.085
-0.0825
-0.075
-0.065
-0.075
-0.0925
-0.105
-0.10625
-0.09125
-0.0775
-0.065
-0.05875
-0.005
0.02125
0.0525
0.08375
0.1475
0.1875
0.23125
0.28
0.3325
0.39125
0.43875
0.4625
0.46125
0.4375
0.4325
0.41875
0.38375
0.09875
0.025
-0.045
-0.105
-0.1475
-0.17625
-0.1925
-0.19625
-0.18375
-0.1225
-0.08
-0.04
-0.01375
-0.00625
-0.0125
-0.02
-0.0225
0.0125
0.02125
0.025
0.02
0.0125
0.0125
0.0125
0.01125
0.01875
0.02375
0.025
0.0325
0.04375
0.04875
0.0525
0.0525
0.0525
0.0475
0.05375
0.06
0.07
0.08
0.0825
0.08125
0.0875
0.1
0.12375
0.12125
0.1125
0.105
0.105
0.11625
0.14
0.15625
0.1575
0.12
0.125
0.14
0.155
0.1675
0.17125
0.17
0.17
0.1725
0.18
0.19
0.2
0.20625
0.2125
0.2125
0.21375
0.22125
0.22625
0.2475
0.2725
0.29625
0.31125
0.3175
0.325
0.3325
0.335
0.335
0.33875
0.345
0.35
0.355
0.3525
0.3525
0.3625
0.37
0.37
0.37
0.3675
0.36125
0.3525
0.35
0.35125
0.35625
0.36375
0.38375
0.375
0.3475
0.3225
0.3075
0.3
0.29125
0.28125
0.27
0.2475
0.2325
0.21125
0.19
0.18
0.18
0.18125
0.1725
0.1525
0.1275
0.08875
0.07625
0.0625
0.0475
0.0175
0
-0.01375
-0.0075
-0.0175
-0.03125
-0.0475
-0.06
-0.07
-0.07875
-0.0875
-0.095
-0.095
-0.09
-0.085
-0.07625
-0.065
-0.0525
-0.045
-0.0375
-0.03375
-0.0325
-0.03375
-0.0725
-0.0875
-0.09875
-0.105
-0.10375
-0.09125
-0.075
-0.06
-0.05
-0.05625
-0.05625
-0.04875
-0.035
-0.0275
-0.0325
-0.0425
-0.05
-0.05
-0.0375
-0.04375
-0.04375
-0.0425
-0.04625
-0.04875
-0.045
-0.035
-0.0225
-0.015
-0.01625
-0.02375
-0.03
-0.0275
-0.0225
-0.01375
-0.0075
-0.01
-0.02375
-0.0175
-0.03
-0.04625
-0.05625
-0.05125
-0.0325
-0.0125
-0.0025
-0.00375
-0.0075
-0.01
-0.01375
-0.02
-0.0225
-0.0325
-0.04375
-0.05
-0.04875
-0.0275
-0.02625
-0.02375
-0.0225
-0.03625
-0.045
-0.04375
-0.0425
-0.04625
-0.0525
-0.05375
-0.04375
-0.03125
-0.02875
-0.03875
-0.04875
-0.0575
-0.0425
-0.04125
-0.035
-0.0325
-0.0475
-0.0525
-0.04375
-0.02875
-0.01625
-0.01125
-0.01
-0.00625
-0.00375
-0.01375
-0.02375
-0.03125
-0.03125
-0.04625
-0.055
-0.0575
-0.05375
-0.04625
-0.04
-0.0325
-0.02375
-0.02
-0.03
-0.0425
-0.04875
-0.04875
-0.04125
-0.0225
-0.0225
-0.025
-0.055
-0.05
-0.045
-0.04375
-0.0375
-0.03625
-0.035
-0.03875
-0.04375
-0.035
-0.03
-0.0325
-0.035
-0.0375
-0.03625
-0.0325
-0.03
-0.045
-0.055
-0.0575
-0.0475
-0.03875
-0.04
-0.04625
-0.0525
-0.0525
-0.04875
-0.04125
-0.035
-0.03875
-0.04875
-0.04875
-0.03375
-0.0325
-0.03125
-0.03
-0.03625
-0.03875
-0.0375
-0.03625
-0.035
-0.03
-0.03
-0.0325
-0.0375
-0.05
-0.045
-0.03375
-0.0225
-0.00875
-0.00375
-0.01
-0.03
-0.08
-0.07375
-0.06
-0.04625
-0.04
-0.03625
-0.02375
-0.0125
-0.01
-0.01875
-0.03125
-0.04375
-0.05
-0.04875
-0.04125
-0.03125
-0.02125
-0.01625
-0.01375
-0.00875
-0.00125
0
-0.005
-0.01375
-0.02125
-0.025
-0.02625
-0.0225
-0.01
0.005
0.0175
0.02
0.0125
0.00125
-0.0025
-0.00625
-0.00625
-0.0025
0.0075
0.03
0.0275
0.02
0.01625
0.01125
0.02875
0.04
0.04625
0.0475
0.0475
0.0325
0.02
0.00875
0.00625
0.005
-0.00375
-0.015
-0.03125
-0.0425
-0.03
-0.02125
-0.02
-0.02625
-0.03375
-0.0325
-0.03
-0.02875
-0.01875
-0.00375
0.005
0.0075
0
-0.0175
-0.03625
-0.04875
-0.0425
-0.025
-0.00875
0
-0.01375
-0.03125
-0.04625
-0.0575
-0.0625
-0.07
-0.07
-0.05625
-0.03125
-0.00125
0.02875
0.05375
0.0825
0.1225
0.16375
0.1925
0.22125
0.25875
0.31
0.37
0.42625
0.4575
0.4575
0.43625
0.41125
0.39375
0.38
0.30875
0.24375
0.1725
0.105
0.04375
-0.0125
-0.0675
-0.11375
-0.1525
-0.1725
-0.17625
-0.15375
-0.13625
-0.11625
-0.095
-0.07
-0.04
-0.035
-0.0325
-0.03125
-0.03125
-0.03625
-0.0425
-0.04125
-0.03375
-0.0225
-0.005
0.00125
0.01375
0.025
0.03
0.03
0.03875
0.055
0.07125
0.0775
0.05375
0.0425
0.035
0.025
0.02125
0.0275
0.03125
0.02625
0.02
0.01625
0.03625
0.05875
0.07125
0.075
0.07
0.06125
0.055
0.05375
0.055
0.055
0.05625
0.06125
0.07
0.0875
0.11
0.13875
0.14625
0.14375
0.135
0.125
0.12625
0.1425
0.15625
0.1625
0.15875
0.15375
0.14875
0.15125
0.1625
0.1825
0.19875
0.205
0.195
0.18375
0.18125
0.1925
0.20875
0.22125
0.23375
0.23875
0.23625
0.2375
0.25
0.265
0.28125
0.29625
0.3175
0.325
0.33125
0.335
0.34375
0.36375
0.35875
0.345
0.33125
0.32125
0.33
0.3425
0.355
0.36
0.3525
0.335
0.32125
0.31625
0.32125
0.33125
0.335
0.32125
0.30125
0.2775
0.2575
0.23625
0.23125
0.225
0.2225
0.21625
0.20625
0.1875
0.16625
0.14625
0.13
0.09625
0.08375
0.075
0.0625
0.04
-0.0625
-0.075
-0.0875
-0.08875
-0.08375
-0.07375
-0.065
-0.0625
-0.06625
-0.07875
-0.09625
-0.11125
-0.1175
-0.11625
-0.11375
-0.12
-0.13375
-0.1425
-0.1375
-0.12125
-0.105
-0.09375
-0.09375
-0.1
-0.1075
-0.1075
-0.10375
-0.10125
-0.10625
-0.11625
-0.125
-0.12625
-0.1225
-0.1175
-0.11625
-0.115
-0.1125
-0.11375
-0.11375
-0.1075
-0.09875
-0.08625
-0.0775
-0.06125
-0.05875
-0.06
-0.0675
-0.07375
-0.08
-0.08375
-0.0825
-0.08125
-0.08125
-0.095
-0.10875
-0.11625
-0.11
-0.0975
-0.05875
-0.05
-0.05
-0.055
-0.0625
-0.0875
-0.1
-0.10375
-0.10125
-0.09375
-0.08625
-0.08375
-0.0775
-0.07
-0.06
-0.0575
-0.06125
-0.06875
-0.075
-0.08
-0.08
-0.07625
-0.0675
-0.05875
-0.06
-0.07
-0.07875
-0.085
-0.08375
-0.08
-0.08625
-0.09375
-0.09375
-0.0875
-0.07375
-0.0625
-0.055
-0.04875
-0.045
-0.06
-0.0725
-0.075
-0.06875
-0.0625
-0.0825
-0.09875
-0.11375
-0.12
-0.11875
-0.10875
-0.095
-0.085
-0.0825
-0.08625
-0.08625
-0.08125
-0.08
-0.0775
-0.07125
-0.05875
-0.045
-0.0425
-0.05625
-0.075
-0.0875
-0.0975
-0.09875
-0.09375
-0.0825
-0.0725
-0.06875
-0.06875
-0.06875
-0.06125
-0.0525
-0.04625
-0.04875
-0.0575
-0.07125
-0.0825
-0.0875
-0.085
-0.07
-0.065
-0.0675
-0.0725
-0.0725
-0.065
-0.05375
-0.0525
-0.06125
-0.06875
-0.07
-0.07
-0.07125
-0.075
-0.07625
-0.07125
-0.05125
-0.04125
-0.04
-0.045
-0.05875
-0.06
-0.06375
-0.06625
-0.065
-0.0575
-0.05375
-0.05625
-0.06625
-0.07
-0.06625
-0.0675
-0.07625
-0.08
-0.0725
-0.0575
-0.045
-0.03375
-0.02875
-0.02875
-0.03
-0.03
-0.03125
-0.035
-0.04125
-0.04625
-0.0475
-0.0525
-0.0575
-0.05625
-0.05375
-0.0575
-0.0675
-0.0725
-0.0725
-0.0625
-0.03875
-0.0275
-0.015
-0.005
-0.01625
-0.03125
-0.035
-0.03
-0.01875
-0.01375
-0.0275
-0.04625
-0.05625
-0.05625
-0.02375
-0.0075
0.00125
0.00375
0.0025
0.0025
0.00375
0.00125
-0.00125
-0.00375
0.0025
0.01125
0.0175
0.01875
0.02
0.0425
0.04875
0.0475
0.0425
0.03375
0.02125
0.01125
0.00125
-0.005
-0.01
-0.01
-0.00875
-0.01125
-0.015
-0.015
-0.01125
-0.01625
-0.01875
-0.0225
-0.025
-0.03
-0.03625
-0.0425
-0.045
-0.04375
-0.03375
-0.02875
-0.03375
-0.04375
-0.05125
-0.05625
-0.06125
-0.06625
-0.065
-0.05625
-0.045
-0.035
-0.03625
-0.0525
-0.07625
-0.0925
-0.09375
-0.08625
-0.085
-0.09
-0.08375
-0.065
-0.04
0.005
0.0275
0.04375
0.06
0.08
0.15125
0.2075
0.27875
0.35
0.41375
0.475
0.4625
0.4375
0.41625
0.3825
0.34875
0.29875
0.23375
0.1625
0.00875
-0.06375
-0.1225
-0.16375
-0.19125
-0.21375
-0.20625
-0.1825
-0.14625
-0.10375
-0.0675
-0.04625
-0.03625
-0.02375
-0.01375
-0.03
-0.04625
-0.0625
-0.06875
-0.06625
-0.05875
-0.045
-0.0325
-0.02
-0.01
0
0.0275
0.03875
0.03125
0.0125
-0.005
-0.0125
-0.01625
-0.02
-0.025
-0.025
-0.01625
-0.0025
0.00875
0.0175
0.0275
0.035
0.03625
0.035
0.04375
0.055
0.06125
0.0675
0.07
0.06375
0.0525
0.03625
0.02125
0.01375
0.0225
0.04125
0.05875
0.07375
0.09
0.12625
0.12875
0.12375
0.1175
0.11375
0.11125
0.10875
0.10875
0.11625
0.12375
0.1275
0.14125
0.14625
0.15125
0.15875
0.16125
0.1525
0.14625
0.15125
0.16375
0.175
0.18375
0.19
0.2025
0.225
0.24625
0.2725
0.28125
0.28875
0.295
0.295
0.28875
0.285
0.2875
0.3
0.32125
0.3425
0.36125
0.3675
0.36125
0.34625
0.3375
0.33625
0.33625
0.3375
0.33375
0.33125
0.32875
0.32875
0.33625
0.34625
0.3575
0.36125
0.3525
0.33125
0.305
0.28625
0.2725
0.26375
0.25
0.23125
0.21125
0.19375
0.17375
0.15375
0.13375
0.12875
0.135
0.14125
0.14
0.12875
0.1025
0.06875
0.0375
-0.0725
-0.07875
-0.08875
-0.095
-0.1
-0.11
-0.11875
-0.12875
-0.14
-0.15875
-0.1625
-0.15375
-0.135
-0.11125
-0.1125
-0.11875
-0.11875
-0.1175
-0.11375
-0.10875
-0.1075
-0.10875
-0.1175
-0.13
-0.1375
-0.13875
-0.13625
-0.1325
-0.125
-0.1125
-0.09875
-0.09625
-0.08875
-0.07625
-0.06875
-0.07375
-0.0875
-0.105
-0.12375
-0.13625
-0.1325
-0.11875
-0.1
-0.085
-0.075
-0.07625
-0.09125
-0.1275
-0.13
-0.12
-0.1025
-0.0825
-0.08375
-0.0875
-0.08625
-0.0775
-0.0725
-0.06875
-0.07375
-0.08875
-0.0925
-0.09
-0.085
-0.08125
-0.0775
-0.07625
-0.07125
-0.075
-0.08625
-0.1
-0.1025
-0.09625
-0.0825
-0.0725
-0.07625
-0.08875
-0.10125
-0.10625
-0.1075
-0.1025
-0.09625
-0.09
-0.09
-0.0925
-0.0925
-0.08625
-0.0775
-0.07375
-0.075
-0.08
-0.08375
-0.0875
-0.09125
-0.09875
-0.105
-0.115
-0.1225
-0.11875
-0.10625
-0.09125
-0.08
-0.0725
-0.06875
-0.06375
-0.06125
-0.0575
-0.05
-0.05
-0.0625
-0.0925
-0.09
-0.08625
-0.09125
-0.1075
-0.10875
-0.10375
-0.09
-0.07375
-0.07
-0.06625
-0.0675
-0.0725
-0.0725
-0.0525
-0.0525
-0.07
-0.095
-0.11375
-0.10375
-0.095
-0.08375
-0.07875
-0.07875
-0.08625
-0.09375
-0.095
-0.0875
-0.06125
-0.05125
-0.03875
-0.03125
-0.0325
-0.04125
-0.04875
-0.05625
-0.06375
-0.0675
-0.07125
-0.0775
-0.08375
-0.09125
-0.09625
-0.09375
-0.08625
-0.075
-0.06625
-0.06
-0.05875
-0.06375
-0.0675
-0.06125
-0.05125
-0.045
-0.04625
-0.05
-0.0575
-0.06875
-0.07625
-0.08625
-0.0975
-0.1025
-0.095
-0.0825
-0.07125
-0.06
-0.04875
-0.04
-0.03
-0.015
-0.0075
-0.02
-0.0475
-0.0825
-0.08125
-0.06875
-0.05
-0.035
-0.025
-0.0225
-0.0225
-0.0275
-0.03375
-0.0375
-0.045
-0.055
-0.06375
-0.0725
-0.08125
-0.085
-0.0775
-0.06625
-0.055
-0.0475
-0.03875
-0.035
-0.035
-0.03625
-0.045
-0.045
-0.03375
-0.01875
-0.0125
-0.02875
-0.05875
-0.07375
-0.06625
-0.0475
-0.03125
-0.02
-0.01
-0.00125
0.01
0.01625
0.01125
-0.00125
-0.01125
-0.01125
-0.01375
-0.02125
-0.04
-0.05
-0.05
-0.0425
-0.0325
-0.0225
0.02125
0.045
0.055
0.05
0.04
0.03125
0.02375
0.01875
0.01
0.00125
-0.005
-0.005
0.0025
0.0075
0.0025
-0.0025
-0.0025
-0.0375
-0.03375
-0.03
-0.03125
-0.045
-0.06375
-0.075
-0.07125
-0.0625
-0.06
-0.06
-0.0475
-0.03875
-0.04
-0.04375
-0.045
-0.04375
-0.0425
-0.04375
-0.05
-0.06
-0.0675
-0.0725
-0.07375
-0.07625
-0.0825
-0.08875
-0.07625
-0.06125
-0.05
-0.035
-0.00875
0.05625
0.08875
0.125
0.16625
0.22
0.27875
0.34125
0.39625
0.4375
0.4575
0.46125
0.46
0.4575
0.4425
0.40125
0.33
0.15375
0.07625
0
-0.07375
-0.1375
-0.20375
-0.1975
-0.18625
-0.1775
-0.1675
-0.14625
-0.12125
-0.0975
-0.0775
-0.06125
-0.05375
-0.0525
-0.0525
-0.05875
-0.06625
-0.0675
-0.06125
-0.03625
-0.02625
-0.02
-0.01625
-0.0175
-0.0175
-0.01375
-0.0125
-0.0125
-0.01125
-0.0075
-0.00125
0.00125
0.00875
0.01
0.00625
0.00125
-0.0025
0.0225
0.02875
0.03625
0.04875
0.065
0.06625
0.0575
0.0425
0.0325
0.03125
0.04
0.05875
0.075
0.08
0.08
0.07875
0.0775
0.0775
0.0775
0.0775
0.07875
0.08875
0.09875
0.1075
0.115
0.1175
0.12125
0.13375
0.15
0.1675
0.17875
0.18125
0.1825
0.18875
0.20375
0.2225
0.23375
0.23375
0.21875
0.205
0.205
0.21875
0.24125
0.26125
0.2675
0.26625
0.27125
0.28125
0.29125
0.305
0.31625
0.32625
0.33125
0.3325
0.33
0.32125
0.3125
0.31125
0.315
0.325
0.325
0.325
0.325
0.32125
0.31625
0.31625
0.32
0.31875
0.31375
0.30125
0.27875
0.24875
0.23
0.22875
0.23875
0.2375
0.23375
0.23
0.2225
0.2075
0.1525
0.11625
0.08125
0.05125
0.02375
0.00625
0.0025
0.01
0.01625
0.0175
0.01625
0.00375
-0.02375
-0.055
-0.08
-0.09625
-0.10125
-0.10125
-0.1
-0.09875
-0.095
-0.0975
-0.10875
-0.12125
-0.13
-0.13375
-0.1475
-0.15
-0.1425
-0.13125
-0.12
-0.1075
-0.10125
-0.10125
-0.11375
-0.1275
-0.13875
-0.1375
-0.125
-0.11375
-0.10625
-0.10875
-0.1175
-0.13
-0.14125
-0.14625
-0.14375
-0.1325
-0.11875
-0.10625
-0.095
-0.0875
-0.08375
-0.085
-0.0875
-0.09
-0.08875
-0.08875
-0.0925
-0.1
-0.10375
-0.09875
-0.085
-0.06875
-0.05625
-0.0575
-0.0675
-0.0775
-0.08125
-0.0875
-0.095
-0.1025
-0.1025
-0.10375
-0.1025
-0.10625
-0.10625
-0.10375
-0.09625
-0.09
-0.0875
-0.08875
-0.08875
-0.08875
-0.09
-0.08625
-0.08625
-0.08625
-0.085
-0.08875
-0.09625
-0.10125
-0.10125
-0.09875
-0.09375
-0.085
-0.07125
-0.0725
-0.07375
-0.0725
-0.0625
-0.0275
-0.01875
-0.02125
-0.04125
-0.075
-0.10875
-0.13625
-0.15125
-0.1525
-0.13875
-0.12125
-0.10875
-0.105
-0.1
-0.09125
-0.08125
-0.0775
-0.06875
-0.0675
-0.0675
-0.0725
-0.08
-0.0875
-0.09375
-0.08875
-0.0725
-0.06375
-0.0725
-0.08625
-0.09625
-0.10125
-0.09625
-0.08375
-0.0725
-0.065
-0.055
-0.0425
-0.04
-0.04625
-0.06125
-0.0775
-0.0925
-0.09875
-0.095
-0.08375
-0.07
-0.065
-0.06125
-0.06125
-0.06375
-0.07125
-0.0775
-0.08125
-0.0875
-0.095
-0.0925
-0.0825
-0.0675
-0.05125
-0.04625
-0.04875
-0.0575
-0.06375
-0.07
-0.0875
-0.0975
-0.1
-0.09625
-0.08625
-0.05125
-0.03
-0.0125
-0.01
-0.02
-0.0375
-0.05625
-0.075
-0.09
-0.1
-0.09875
-0.09375
-0.0825
-0.07
-0.0625
-0.06125
-0.06125
-0.05875
-0.05
-0.03625
-0.0225
-0.01625
-0.02125
-0.03375
-0.05125
-0.06875
-0.09
-0.10125
-0.0975
-0.08
-0.06625
-0.0625
-0.06875
-0.07
-0.0625
-0.05
-0.0425
-0.04
-0.04125
-0.03875
-0.03125
-0.0275
-0.03625
-0.05
-0.05625
-0.05
-0.0425
-0.04
-0.03875
-0.03625
-0.0375
-0.04625
-0.0525
-0.05
-0.0425
-0.035
-0.02875
-0.02375
-0.0175
-0.01875
-0.025
-0.035
-0.03875
-0.03
-0.01125
0
0
-0.01375
-0.02875
-0.025
-0.02125
-0.0175
-0.01375
-0.01125
0.0025
0.02625
0.045
0.045
0.02875
0.015
0.0075
0.0125
0.01625
0.01375
0.00625
0
-0.005
-0.005
0
0.005
0.0025
-0.0075
-0.02375
-0.04125
-0.0525
-0.0575
-0.05875
-0.06
-0.05875
-0.0575
-0.06125
-0.0725
-0.08125
-0.08
-0.0725
-0.06625
-0.0575
-0.04625
-0.03625
-0.03
-0.03
-0.03875
-0.0425
-0.04125
-0.03375
-0.0275
-0.0275
-0.0275
-0.02875
-0.03125
-0.0375
-0.04625
-0.055
-0.06125
-0.06625
-0.0675
-0.06875
-0.07125
-0.06625
-0.05
-0.015
0.08
0.13125
0.18125
0.2275
0.27375
0.3225
0.36625
0.39375
0.3975
0.38375
0.36375
0.3475
0.33625
0.32125
0.255
0.215
0.16625
0.10625
0.0325
-0.04125
-0.1075
-0.15625
-0.19
-0.20375
-0.19875
-0.1825
-0.16375
-0.1425
-0.08875
-0.07375
-0.07125
-0.08
-0.0925
-0.09
-0.075
-0.05625
-0.0375
-0.0275
-0.02125
-0.0125
0.00125
0.01125
-0.00625
-0.0275
-0.04875
-0.05875
-0.04625
-0.0225
0.00375
0.02375
0.0425
0.055
0.05875
0.05
0.03625
0.025
0.025
0.02875
0.03
0.0225
0.00625
-0.00375
-0.005
0.00125
0.0175
0.03375
0.04375
0.04625
0.04875
0.05625
0.06625
0.07125
0.06375
0.05
0.0425
0.04625
0.05375
0.05875
0.065
0.075
0.0875
0.09875
0.09625
0.09
0.08875
0.10125
0.13625
0.15375
0.1675
0.175
0.17875
0.1775
0.1725
0.1625
0.15625
0.16
0.17125
0.18625
0.19125
0.18875
0.185
0.1875
0.2
0.22625
0.25625
0.27625
0.28125
0.2725
0.26
0.24625
0.24125
0.245
0.25625
0.26875
0.2825
0.3
0.30375
0.3125
0.32875
0.345
0.3525
0.35125
0.35
0.34625
0.34
0.34
0.34375
0.34875
0.35125
0.32875
0.30625
0.28625
0.27
0.26875
0.27875
0.29
0.2975
0.2925
0.27375
0.2475
0.2275
0.21125
0.195
0.1675
0.15625
0.14625
0.13125
0.1175
0.11
0.10875
0.105
0.08375
0.05625
0.0275
-0.0025
-0.03375
-0.0575
-0.06625
-0.07
-0.07375
-0.0725
-0.0675
-0.0625
-0.065
-0.0775
-0.09875
-0.11875
-0.13125
-0.13375
-0.1275
-0.12125
-0.12
-0.1225
-0.12625
-0.13125
-0.12875
-0.12125
-0.11375
-0.11375
-0.11375
-0.115
-0.11625
-0.11125
-0.11
-0.1175
-0.12375
-0.13125
-0.14875
-0.15875
-0.165
-0.16875
-0.16375
-0.155
-0.1475
-0.14125
-0.13125
-0.11375
-0.0925
-0.0725
-0.0675
-0.08125
-0.1
-0.11625
-0.12875
-0.13625
-0.13375
-0.1225
-0.10625
-0.0925
-0.08625
-0.0875
-0.08875
-0.08375
-0.075
-0.0675
-0.06875
-0.07625
-0.09
-0.10375
-0.115
-0.11625
-0.1125
-0.10125
-0.0875
-0.06875
-0.0525
-0.0675
-0.09
-0.115
-0.13625
-0.1475
-0.14625
-0.1325
-0.11375
-0.10125
-0.1
-0.1075
-0.1075
-0.095
-0.08
-0.065
-0.05875
-0.065
-0.0725
-0.075
-0.07375
-0.06875
-0.07125
-0.07875
-0.085
-0.08625
-0.09125
-0.0975
-0.10375
-0.10375
-0.1075
-0.1075
-0.1025
-0.0975
-0.09125
-0.08875
-0.08875
-0.085
-0.08125
-0.0825
-0.09125
-0.09375
-0.08875
-0.0875
-0.09375
-0.09
-0.08625
-0.0875
-0.09125
-0.08875
-0.08375
-0.0775
-0.07625
-0.08
-0.08625
-0.095
-0.0975
-0.09125
-0.07375
-0.0525
-0.03875
-0.04125
-0.08125
-0.1025
-0.1175
-0.1175
-0.105
-0.09125
-0.08875
-0.09125
-0.09625
-0.09375
-0.0925
-0.08
-0.0725
-0.075
-0.0825
-0.0875
-0.09375
-0.095
-0.08875
-0.07625
-0.0675
-0.0675
-0.06625
-0.06
-0.0525
-0.05125
-0.0575
-0.06375
-0.06625
-0.07375
-0.08625
-0.095
-0.085
-0.0575
-0.03125
-0.02
-0.0475
-0.0675
-0.0825
-0.08875
-0.08875
-0.0875
-0.08875
-0.085
-0.0875
-0.09125
-0.0925
-0.085
-0.07375
-0.0625
-0.0575
-0.065
-0.0775
-0.08625
-0.08625
-0.07375
-0.05375
-0.0375
-0.0325
-0.03125
-0.035
-0.0375
-0.0425
-0.04875
-0.04875
-0.045
-0.04
-0.04375
-0.0475
-0.04875
-0.04
-0.02875
-0.0175
-0.02
-0.02875
-0.03125
-0.035
-0.04625
-0.05625
-0.05625
-0.04625
-0.03375
-0.02375
-0.0175
-0.01625
-0.0175
-0.01
0.00375
0.0175
0.0225
0.01875
0.00875
-0.00125
-0.00375
-0.00125
-0.0025
-0.00375
-0.005
-0.0025
-0.00125
-0.0025
-0.01875
-0.025
-0.03375
-0.04375
-0.05375
-0.06125
-0.07625
-0.09125
-0.1025
-0.10875
-0.10125
-0.08
-0.05
-0.02625
-0.03375
-0.055
-0.07125
-0.08
-0.0825
-0.0925
-0.09625
-0.0925
-0.08375
-0.07875
-0.085
-0.095
-0.10125
-0.10125
-0.0975
-0.09625
-0.09125
-0.0775
-0.06
-0.045
-0.0275
-0.005
0.01375
0.03125
0.05625
0.09625
0.15
0.205
0.31
0.36625
0.4225
0.4575
0.4575
0.4
0.3825
0.3725
0.3475
0.30125
0.2325
0.1525
0.01125
-0.045
-0.10375
-0.1575
-0.20375
-0.235
-0.245
-0.22875
-0.1975
-0.16125
-0.12625
-0.09375
-0.06875
-0.05625
-0.05375
-0.05625
-0.06125
-0.05875
-0.045
-0.035
-0.03625
-0.0375
-0.0375
-0.0325
-0.02625
-0.01875
-0.00625
0.0025
0.00625
0.00125
0.0025
0.0025
0
-0.0075
-0.01625
-0.025
-0.035
-0.04
-0.0375
-0.0225
0.00625
0.01875
0.02375
0.01625
0.0025
-0.00375
0.0025
0.015
0.025
0.035
0.045
0.0525
0.05875
0.0675
0.07
0.0625
0.05375
0.0525
0.055
0.06125
0.07375
0.08375
0.09375
0.09375
0.0875
0.08
0.07625
0.07875
0.08625
0.0975
0.105
0.1075
0.11125
0.1175
0.1225
0.1275
0.1375
0.1475
0.1575
0.165
0.16875
0.16875
0.17
0.17375
0.1825
0.19625
0.21125
0.22625
0.24125
0.25625
0.2625
0.25875
0.25125
0.2475
0.25625
0.27625
0.29375
0.305
0.30875
0.31
0.31
0.31625
0.31875
0.31875
0.32625
0.33125
0.32875
0.3225
0.32125
0.32375
0.32375
0.325
0.32625
0.32875
0.325
0.31
0.3
0.2875
0.27
0.25125
0.2275
0.22375
0.21625
0.2025
0.16375
0.15375
0.1475
0.13625
0.11875
0.1
0.08375
0.07125
0.0625
0.055
0.04
0.025
0.005
-0.005
-0.01375
-0.0275
-0.0425
-0.05875
-0.06875
-0.075
-0.075
-0.0775
-0.08875
-0.10625
-0.12625
-0.1325
-0.13125
-0.125
-0.11625
-0.11
-0.11
-0.1175
-0.13
-0.14375
-0.15125
-0.15375
-0.15
-0.14875
-0.1525
-0.15375
-0.145
-0.12625
-0.11375
-0.11875
-0.12125
-0.1225
-0.1325
-0.15
-0.16125
-0.1575
-0.14125
-0.12625
-0.10875
-0.0975
-0.0925
-0.1
-0.11625
-0.1325
-0.1375
-0.13625
-0.13
-0.1075
-0.10125
-0.1
-0.1025
-0.105
-0.10625
-0.1125
-0.12375
-0.13375
-0.1375
-0.13125
-0.115
-0.095
-0.07625
-0.07
-0.07375
-0.08125
-0.09
-0.0975
-0.10375
-0.105
-0.10375
-0.1
-0.0975
-0.095
-0.09375
-0.095
-0.1025
-0.10375
-0.095
-0.0625
-0.05875
-0.065
-0.0825
-0.0975
-0.09875
-0.08875
-0.075
-0.06875
-0.07125
-0.0825
-0.08875
-0.09125
-0.09375
-0.09125
-0.09625
-0.10875
-0.125
-0.135
-0.1275
-0.10875
-0.09
-0.08
-0.0775
-0.08125
-0.08
-0.0825
-0.085
-0.09125
-0.09875
-0.1
-0.10125
-0.10125
-0.1075
-0.11875
-0.12375
-0.11875
-0.10375
-0.08375
-0.06375
-0.0525
-0.04625
-0.04
-0.03625
-0.0525
-0.06125
-0.0675
-0.08125
-0.09375
-0.105
-0.11125
-0.11
-0.1025
-0.10125
-0.1
-0.095
-0.08375
-0.07625
-0.0875
-0.0875
-0.07625
-0.06625
-0.05625
-0.0475
-0.0525
-0.06625
-0.08125
-0.0925
-0.09375
-0.09625
-0.09625
-0.09375
-0.08125
-0.07625
-0.0675
-0.05875
-0.05
-0.04875
-0.05625
-0.07
-0.08625
-0.09625
-0.09375
-0.0775
-0.05375
-0.03375
-0.0525
-0.07875
-0.09375
-0.095
-0.08125
-0.0675
-0.06125
-0.0675
-0.07125
-0.07
-0.07
-0.07125
-0.0725
-0.07
-0.06625
-0.05875
-0.05625
-0.05625
-0.06
-0.06
-0.05625
-0.0475
-0.04625
-0.05375
-0.065
-0.0825
-0.0975
-0.09
-0.07
-0.05375
-0.04375
-0.03875
-0.04875
-0.05875
-0.0625
-0.06
-0.0575
-0.05375
-0.04625
-0.0375
-0.03
-0.035
-0.0425
-0.055
-0.06
-0.055
-0.05125
-0.0525
-0.0575
-0.0575
-0.05625
-0.0525
-0.05125
-0.05375
-0.05625
-0.05375
-0.04625
-0.03375
-0.02625
-0.02875
-0.03625
-0.03625
-0.03625
-0.0375
-0.04625
-0.05375
-0.04625
-0.02875
-0.00875
0.01625
0.01625
0.00875
0.00125
-0.01
-0.0175
-0.025
-0.0275
-0.02875
-0.0275
-0.02
-0.0075
0.00875
0.0275
0.0425
0.0475
0.045
0.03875
0.03
0.02125
0.0125
0.00125
-0.00875
-0.01875
-0.02375
-0.02375
-0.02
-0.015
-0.00875
0.00875
0.015
0.01375
0.005
-0.0075
-0.04
-0.05375
-0.06125
-0.0625
-0.06125
-0.065
-0.065
-0.05875
-0.05125
-0.04625
-0.04625
-0.04875
-0.0525
-0.05125
-0.04875
-0.05
-0.05625
-0.06375
-0.0675
-0.065
-0.06125
-0.05875
-0.0575
-0.06125
-0.0675
-0.0725
-0.07625
-0.0825
-0.08875
-0.09
-0.08375
-0.0675
-0.04625
-0.02
0.00625
0.045
0.0975
0.15625
0.26375
0.30875
0.3525
0.38875
0.415
0.43
0.435
0.43375
0.4325
0.4325
0.42875
0.4025
0.34875
0.275
0.12
0.05
-0.01375
-0.08125
-0.14625
-0.2275
-0.22625
-0.20375
-0.1725
-0.14125
-0.11125
-0.08375
-0.0625
-0.03625
-0.03125
-0.03375
-0.03875
-0.0425
-0.04875
-0.05
-0.0525
-0.05125
-0.045
-0.0325
-0.02125
-0.01375
-0.01
-0.0075
-0.0025
0.00375
0.00875
0.015
0.01
0.00125
-0.0025
0
0.01625
0.0375
0.05125
0.0525
0.04
0.02625
0.02
0.0225
0.02875
0.03375
0.03
0.03375
0.04
0.045
0.0475
0.0525
0.0625
0.07
0.0725
0.07125
0.07125
0.075
0.0775
0.08
0.0925
0.0975
0.0975
0.08875
0.07875
0.0725
0.07875
0.09875
0.12625
0.15
0.16375
0.16625
0.16625
0.17125
0.18
0.18875
0.19125
0.18875
0.1875
0.19125
0.2
0.2075
0.2175
0.225
0.22875
0.23625
0.2525
0.275
0.28625
0.28125
0.2725
0.2725
0.28125
0.29375
0.30625
0.31875
0.325
0.32125
0.3175
0.31875
0.32625
0.335
0.33625
0.33375
0.3375
0.33875
0.34125
0.345
0.355
0.36625
0.37
0.36375
0.3475
0.33
0.31625
0.3025
0.29
0.27625
0.24125
0.22875
0.22875
0.22875
0.21875
0.2075
0.2025
0.195
0.1675
0.14625
0.12
0.0925
0.0775
0.065
0.055
0.03875
0.0125
-0.01375
-0.03625
-0.0475
-0.05125
-0.05875
-0.0625
-0.06875
-0.07375
-0.075
-0.08125
-0.0925
-0.105
-0.12125
-0.135
-0.14875
-0.15125
-0.145
-0.13625
-0.13125
-0.12875
-0.12375
-0.12125
-0.12125
-0.12125
-0.11125
-0.09625
-0.07625
-0.065
-0.06625
-0.08375
-0.10375
-0.115
-0.11875
-0.1225
-0.12875
-0.13625
-0.14125
-0.14875
-0.14625
-0.1325
-0.11125
-0.09
-0.0675
-0.0575
-0.06875
-0.0975
-0.12125
-0.13
-0.12875
-0.1225
-0.115
-0.11
-0.10625
-0.10625
-0.10625
-0.10875
-0.10375
-0.09375
-0.0775
-0.07
-0.07
-0.07875
-0.09875
-0.0975
-0.085
-0.07
-0.05625
-0.055
-0.06
-0.0675
-0.08
-0.09125
-0.095
-0.0925
-0.0875
-0.08625
-0.085
-0.085
-0.085
-0.0875
-0.09125
-0.08875
-0.085
-0.0775
-0.07125
-0.06625
-0.07
-0.07875
-0.09125
-0.0975
-0.09
-0.0775
-0.06625
-0.06375
-0.0675
-0.07125
-0.08
-0.09
-0.09625
-0.1
-0.095
-0.09375
-0.09625
-0.0875
-0.075
-0.06375
-0.07375
-0.08
-0.08
-0.0725
-0.06125
-0.05625
-0.055
-0.05375
-0.0575
-0.06
-0.0625
-0.06625
-0.07
-0.07875
-0.08375
-0.0875
-0.0925
-0.1025
-0.105
-0.0925
-0.085
-0.08375
-0.08625
-0.09
-0.09
-0.08625
-0.08125
-0.0725
-0.065
-0.0675
-0.08125
-0.09
-0.09125
-0.085
-0.0675
-0.0475
-0.05375
-0.06625
-0.07625
-0.07875
-0.07625
-0.07375
-0.05875
-0.05125
-0.04875
-0.05625
-0.07125
-0.08
-0.07875
-0.065
-0.0425
-0.0225
-0.01625
-0.0575
-0.075
-0.07625
-0.07125
-0.06625
-0.07
-0.07875
-0.08125
-0.0675
-0.06
-0.05625
-0.05625
-0.0575
-0.06
-0.05625
-0.0425
-0.03
-0.025
-0.03125
-0.03625
-0.03875
-0.0425
-0.0525
-0.06375
-0.07125
-0.0775
-0.085
-0.08625
-0.08125
-0.07125
-0.06
-0.05
-0.0425
-0.04875
-0.055
-0.06
-0.06375
-0.0675
-0.07
-0.065
-0.055
-0.04
-0.02875
-0.025
-0.0225
-0.02
-0.02
-0.02125
-0.0275
-0.0375
-0.045
-0.04875
-0.05125
-0.055
-0.06
-0.05625
-0.04625
-0.03375
-0.02875
-0.0275
-0.03
-0.03375
-0.04
-0.03625
-0.03
-0.02625
-0.02875
-0.0375
-0.0475
-0.05625
-0.05625
-0.05
-0.04125
-0.035
-0.03125
-0.0275
-0.02375
-0.025
-0.0325
-0.03875
-0.03625
-0.0275
-0.02
-0.01
-0.0025
0
-0.00375
-0.01625
-0.0275
-0.0325
-0.03375
-0.035
-0.0375
-0.03875
-0.03625
-0.03
-0.01
0.00625
0.0175
0.0175
0.00625
-0.005
-0.015
-0.01875
-0.02125
-0.0225
-0.0175
-0.005
0.01125
0.02375
0.02625
0.02125
0.0125
0.01125
0.01875
0.03375
0.04875
0.05875
0.06
0.0525
0.04
0.03125
0.03125
0.02625
0.0225
0.0175
0.01625
0.02
0.025
0.025
0.02625
0.02375
0.0125
0
-0.01375
-0.02375
-0.03625
-0.05
-0.05875
-0.06625
-0.06875
-0.065
-0.0575
-0.04875
-0.04125
-0.0225
-0.01125
-0.00875
-0.02
-0.03625
-0.04375
-0.04375
-0.04375
-0.055
-0.06625
-0.07875
-0.08375
-0.0825
-0.07125
-0.0525
-0.03625
-0.0275
-0.0225
-0.02125
-0.015
-0.0025
0.01875
0.05125
0.0875
0.1225
0.165
0.215
0.2675
0.3225
0.3825
0.43875
0.47375
0.4825
0.4725
0.4575
0.44125
0.42375
0.3475
0.28875
0.22875
0.16875
0.105
0.035
-0.0375
-0.11
-0.16375
-0.18875
-0.19125
-0.17875
-0.15875
-0.14
-0.11875
-0.09875
-0.0775
-0.0575
-0.04125
-0.0325
-0.03
-0.0325
-0.03
-0.01375
0.00875
0.03125
0.03875
0.03
-0.005
-0.0225
-0.0325
-0.03375
-0.025
0.00125
0.00875
0.00875
0.0075
0.00875
0.0175
0.0275
0.03
0.025
0.02
0.01125
0.005
0.00375
0.0125
0.0225
0.03375
0.04375
0.05125
0.06125
0.075
0.08125
0.0825
0.0825
0.08125
0.075
0.07
0.07
0.07625
0.08375
0.0875
0.085
0.08375
0.09
0.10125
0.14125
0.16
0.175
0.1875
0.1925
0.1825
0.15875
0.13875
0.135
0.145
0.16125
0.175
0.1875
0.19875
0.21375
0.22375
0.2325
0.24
0.2425
0.24875
0.26
0.275
0.295
0.30875
0.3125
0.305
0.2975
0.28375
0.2825
0.29
0.305
0.3225
0.345
0.35125
0.35625
0.3625
0.37
0.36875
0.36125
0.355
0.355
0.35875
0.3575
0.34375
0.3225
0.2775
0.26625
0.26125
0.25375
0.2475
0.245
0.24375
0.2425
0.2275
0.21
0.185
0.1625
0.13875
0.08125
0.05875
0.0425
0.03375
0.02375
0.0125
0.0025
-0.00375
-0.00125
0.00125
-0.00125
-0.0175
-0.04
-0.06
-0.07875
-0.08375
-0.08
-0.07125
-0.07125
-0.085
-0.1025
-0.11625
-0.12375
-0.11625
-0.105
-0.1025
-0.115
-0.13625
-0.15125
-0.1575
-0.15125
-0.13375
-0.1125
-0.1025
-0.10625
-0.1175
-0.135
-0.14
-0.14125
-0.13375
-0.12125
-0.105
-0.0925
-0.09375
-0.09875
-0.10375
-0.10375
-0.10125
-0.09375
-0.0925
-0.0975
-0.10625
-0.11625
-0.13
-0.13875
-0.135
-0.11875
-0.09375
-0.07375
-0.06125
-0.06125
-0.06625
-0.07
-0.075
-0.07875
-0.07625
-0.07125
-0.0725
-0.08
-0.09125
-0.09625
-0.09625
-0.0925
-0.09125
-0.085
-0.08375
-0.085
-0.08625
-0.085
-0.08375
-0.08125
-0.07875
-0.07375
-0.06875
-0.0675
-0.07
-0.0775
-0.085
-0.08375
-0.08125
-0.07625
-0.075
-0.0725
-0.0725
-0.08375
-0.08125
-0.0725
-0.06
-0.05125
-0.0525
-0.055
-0.06625
-0.07625
-0.08125
-0.08125
-0.07625
-0.07625
-0.07875
-0.08125
-0.07875
-0.06875
-0.06
-0.065
-0.07
-0.08
-0.09625
-0.11625
-0.1125
-0.10625
-0.095
-0.08875
-0.08875
-0.09
-0.07
-0.05875
-0.0525
-0.055
-0.06
-0.0775
-0.08625
-0.08625
-0.07875
-0.0725
-0.07
-0.07125
-0.07125
-0.07375
-0.07625
-0.0725
-0.065
-0.06
-0.06125
-0.0725
-0.08
-0.08
-0.07875
-0.0775
-0.08125
-0.0825
-0.07
-0.05
-0.03875
-0.0425
-0.0575
-0.0725
-0.08125
-0.0725
-0.0575
-0.0475
-0.04875
-0.055
-0.0675
-0.08125
-0.08875
-0.0825
-0.07375
-0.07125
-0.07375
-0.07625
-0.075
-0.07125
-0.0575
-0.045
-0.03625
-0.03
-0.0275
-0.0325
-0.04625
-0.065
-0.08875
-0.09375
-0.1025
-0.1075
-0.1
-0.07125
-0.05375
-0.045
-0.03875
-0.03375
-0.03375
-0.035
-0.03625
-0.04
-0.05
-0.05875
-0.0625
-0.06625
-0.05375
-0.04
-0.0275
-0.02875
-0.03625
-0.03875
-0.03
-0.02625
-0.03125
-0.04125
-0.0525
-0.05875
-0.055
-0.04625
-0.0425
-0.0475
-0.05625
-0.06625
-0.0725
-0.0675
-0.05375
-0.03875
-0.03
-0.02625
-0.02375
-0.02125
-0.025
-0.03625
-0.04625
-0.05125
-0.05
-0.04375
-0.02
-0.0175
-0.02375
-0.0325
-0.03625
-0.03125
-0.02
-0.01125
-0.015
-0.02625
-0.03875
-0.03875
-0.0225
0
0.0175
0.0225
0.01875
0.00625
-0.01
-0.0275
-0.035
-0.03
-0.01375
0.0025
0.01375
0.0175
0.02
0.0225
0.02875
0.035
0.0375
0.03375
0.02625
0.015
0.00375
0.00125
0.0025
0.00125
0.00125
0.00375
0.01
0.01375
0.01375
0.00875
-0.00375
-0.02625
-0.0575
-0.0575
-0.05875
-0.06125
-0.0625
-0.06
-0.0525
-0.04875
-0.04625
-0.04125
-0.035
-0.03875
-0.0525
-0.06875
-0.07875
-0.06625
-0.045
-0.02875
-0.03
-0.0575
-0.0575
-0.045
-0.03125
-0.03
-0.04125
-0.055
-0.06
-0.065
-0.05375
-0.035
-0.0075
0.0275
0.07125
0.15625
0.1975
0.2375
0.2775
0.31625
0.35
0.36875
0.37125
0.35875
0.34375
0.34
0.34625
0.35375
0.345
0.30875
0.25
0.17
0.0825
-0.00375
-0.08375
-0.14625
-0.195
-0.23
-0.24125
-0.23
-0.2
-0.1625
-0.13
-0.10625
-0.0825
-0.06125
-0.0425
-0.03
-0.0275
-0.03
-0.0375
-0.045
-0.04625
-0.0375
-0.02875
-0.02125
-0.01875
-0.02125
-0.02625
-0.035
-0.02875
-0.01625
-0.0025
0.00125
0.00375
0.00125
-0.0025
-0.0125
-0.0125
-0.00375
0.00625
0.01125
0.00875
0.0025
0.0075
0.02125
0.04375
0.06375
0.07875
0.08375
0.0675
0.05
0.045
0.05125
0.05875
0.05875
0.05625
0.06
0.055
0.05375
0.065
0.085
0.0975
0.10375
0.10375
0.09875
0.0875
0.08
0.0775
0.0875
0.10125
0.11875
0.13375
0.14
0.13875
0.14125
0.14625
0.155
0.16375
0.16875
0.16
0.145
0.13375
0.135
0.145
0.17
0.20625
0.245
0.2775
0.29625
0.29375
0.28375
0.27625
0.27875
0.28
0.2775
0.27
0.26375
0.26375
0.27375
0.2925
0.3525
0.37
0.375
0.36625
0.3475
0.32375
0.30375
0.295
0.2925
0.3
0.31625
0.33625
0.345
0.34125
0.31875
0.31
0.31
0.3125
0.315
0.31
0.2975
0.2775
0.26125
0.24875
0.23875
0.23
0.2175
0.19625
0.17
0.14125
0.1175
0.1025
0.0975
0.095
0.095
0.0925
0.085
0.07
0.04625
0.01625
-0.01125
-0.04
-0.055
-0.055
-0.04875
-0.05
-0.06
-0.075
-0.08125
-0.075
-0.06875
-0.06625
-0.065
-0.075
-0.09875
-0.1275
-0.14375
-0.14875
-0.15375
-0.15625
-0.1525
-0.1425
-0.13
-0.115
-0.10625
-0.10625
-0.1125
-0.1175
-0.1225
-0.125
-0.1275
-0.1325
-0.1425
-0.1425
-0.145
-0.14625
-0.13875
-0.12875
-0.11625
-0.1125
-0.12125
-0.1275
-0.1275
-0.12125
-0.11625
-0.11625
-0.10125
-0.0925
-0.0925
-0.0975
-0.1075
-0.11125
-0.11375
-0.1125
-0.11
-0.105
-0.1
-0.10375
-0.1025
-0.09375
-0.08
-0.07625
-0.085
-0.09875
-0.11125
-0.11375
-0.10875
-0.105
-0.09875
-0.09625
-0.0925
-0.0875
-0.07875
-0.07375
-0.07
-0.0675
-0.0675
-0.06625
-0.06625
-0.07
-0.07125
-0.07125
-0.06875
-0.06375
-0.06125
-0.0575
-0.0625
-0.08
-0.0975
-0.1125
-0.12
-0.12
-0.11125
-0.105
-0.0975
-0.09375
-0.09375
-0.0975
-0.095
-0.0875
-0.075
-0.06375
-0.06625
-0.07375
-0.07625
-0.07375
-0.07375
-0.0825
-0.095
-0.1075
-0.11625
-0.11625
-0.10625
-0.09
-0.0725
-0.05875
-0.05375
-0.055
-0.06
-0.06875
-0.07125
-0.0725
-0.07
-0.07
-0.07875
-0.095
-0.10625
-0.11125
-0.105
-0.09375
-0.08625
-0.08
-0.075
-0.08
-0.09125
-0.10125
-0.0975
-0.08375
-0.06625
-0.05625
-0.05875
-0.06875
-0.075
-0.07
-0.06375
-0.0625
-0.06875
-0.07875
-0.095
-0.1
-0.1025
-0.0975
-0.08625
-0.06625
-0.05875
-0.05875
-0.05875
-0.05875
-0.06375
-0.07125
-0.0775
-0.0825
-0.08625
-0.08625
-0.08125
-0.06875
-0.05375
-0.0425
-0.04125
-0.045
-0.05125
-0.05625
-0.0575
-0.05125
-0.04375
-0.0425
-0.0475
-0.05875
-0.06875
-0.07375
-0.08125
-0.09375
-0.09625
-0.0875
-0.07
-0.06875
-0.0625
-0.0525
-0.03625
-0.025
-0.0225
-0.025
-0.02875
-0.035
-0.04375
-0.055
-0.06625
-0.07625
-0.07875
-0.07125
-0.06375
-0.05625
-0.04875
-0.04125
-0.02875
-0.01875
-0.01625
-0.02625
-0.0425
-0.055
-0.0625
-0.065
-0.0675
-0.0775
-0.08
-0.075
-0.06125
-0.05125
-0.0425
-0.03875
-0.0375
-0.04375
-0.0525
-0.0575
-0.05875
-0.05875
-0.0525
-0.04375
-0.035
-0.0325
-0.03
-0.02125
-0.01125
-0.01
-0.0125
-0.02125
-0.02875
-0.0275
-0.02125
-0.01375
-0.01125
-0.01
-0.01
-0.01
-0.00875
-0.01125
-0.01625
-0.01625
-0.01
-0.00625
-0.0075
-0.0125
-0.02
-0.02125
-0.0125
-0.00375
-0.00125
-0.00125
-0.00375
-0.00625
-0.0075
-0.00125
0
0
0
0.00625
0.015
0.02125
0.02
0.02
0.02
0.02125
0.0175
0.015
0.005
-0.005
-0.01375
-0.01375
-0.01
-0.00875
-0.01375
-0.01875
-0.025
-0.03
-0.0375
-0.0475
-0.06125
-0.07125
-0.07375
-0.0675
-0.065
-0.0675
-0.07625
-0.085
-0.08375
-0.07625
-0.0675
-0.05875
-0.05375
-0.05875
-0.065
-0.06625
-0.07125
-0.0725
-0.0675
-0.06
-0.05875
-0.055
-0.0525
-0.055
-0.0625
-0.06375
-0.0575
-0.045
-0.02625
-0.00125
0.02625
0.065
0.11
0.1625
0.2175
0.2775
0.33625
0.39125
0.4375
0.46125
0.46125
0.4375
0.4375
0.42875
0.39875
0.3425
0.26625
0.1825
0.10375
-0.0325
-0.085
-0.1225
-0.14875
-0.16375
-0.1575
-0.14125
-0.12625
-0.1175
-0.10875
-0.1
-0.08875
-0.07875
-0.07
-0.07125
-0.07125
-0.0625
-0.05375
-0.04625
-0.04
-0.03125
-0.01625
-0.00125
0.005
0.00375
0
0.00125
0.00875
0.00625
0
-0.0025
-0.005
-0.00625
-0.0025
0.0025
0.00625
0.0075
0.0125
0.03
0.05125
0.06
0.03
0.02375
0.02875
0.03875
0.0425
0.0475
0.04
0.03
0.02625
0.0325
0.04625
0.0625
0.075
0.075
0.06875
0.06375
0.065
0.07125
0.08
0.09125
0.10125
0.105
0.1025
0.105
0.11
0.12125
0.1325
0.13875
0.14375
0.14875
0.15875
0.165
0.16375
0.16125
0.17
0.1875
0.2025
0.21
0.21375
0.2175
0.22375
0.2275
0.23625
0.245
0.2525
0.265
0.275
0.28125
0.2875
0.3
0.30875
0.315
0.3175
0.3175
0.3175
0.31875
0.3225
0.32375
0.32375
0.32875
0.3375
0.35125
0.365
0.3675
0.36625
0.36125
0.35625
0.35375
0.35375
0.3525
0.35125
0.35125
0.3475
0.3275
0.29875
0.275
0.26125
0.2525
0.24
0.2225
0.20375
0.1825
0.16125
0.145
0.13875
0.1325
0.115
0.1025
0.08625
0.0575
0.025
0
-0.025
-0.0475
-0.05625
-0.0475
-0.0325
-0.0225
-0.0175
-0.02125
-0.03
-0.03625
-0.04125
-0.05125
-0.065
-0.105
-0.12125
-0.12625
-0.11875
-0.10875
-0.1025
-0.10125
-0.10625
-0.1275
-0.13625
-0.135
-0.12875
-0.1225
-0.12
-0.11625
-0.11
-0.115
-0.125
-0.13875
-0.15375
-0.1575
-0.1525
-0.1425
-0.13625
-0.1225
-0.105
-0.095
-0.095
-0.10375
-0.1125
-0.12
-0.1175
-0.10875
-0.09375
-0.08375
-0.08
-0.08625
-0.0925
-0.09875
-0.105
-0.10625
-0.10125
-0.09
-0.08625
-0.085
-0.0875
-0.09375
-0.10125
-0.105
-0.075
-0.06125
-0.0625
-0.07625
-0.09125
-0.11
-0.11875
-0.12125
-0.11375
-0.11
-0.11375
-0.115
-0.11
-0.0975
-0.08125
-0.06375
-0.05
-0.03875
-0.0375
-0.0475
-0.0625
-0.0725
-0.07125
-0.065
-0.05625
-0.05375
-0.06125
-0.07125
-0.0825
-0.09125
-0.0975
-0.09625
-0.095
-0.09875
-0.10125
-0.1
-0.095
-0.085
-0.06875
-0.0675
-0.07
-0.08125
-0.10375
-0.10375
-0.095
-0.0825
-0.06875
-0.06
-0.065
-0.07125
-0.07125
-0.07125
-0.07875
-0.08625
-0.0875
-0.0875
-0.085
-0.08625
-0.085
-0.08125
-0.07375
-0.0625
-0.05875
-0.0625
-0.065
-0.06625
-0.0675
-0.065
-0.0725
-0.08
-0.09
-0.0975
-0.10375
-0.1025
-0.09625
-0.0825
-0.07
-0.05625
-0.0575
-0.06875
-0.0825
-0.09
-0.08875
-0.0825
-0.07125
-0.06625
-0.065
-0.07
-0.08125
-0.08125
-0.0875
-0.0975
-0.105
-0.095
-0.07625
-0.06
-0.05375
-0.055
-0.055
-0.04875
-0.0425
-0.04125
-0.04625
-0.05125
-0.055
-0.05375
-0.05625
-0.06125
-0.0675
-0.07125
-0.07125
-0.0725
-0.0725
-0.06875
-0.06875
-0.06875
-0.07
-0.06375
-0.05875
-0.05625
-0.06125
-0.07125
-0.0775
-0.08125
-0.085
-0.0875
-0.08625
-0.08
-0.07375
-0.06875
-0.06625
-0.05875
-0.0475
-0.0425
-0.0425
-0.045
-0.04625
-0.04625
-0.04625
-0.04625
-0.05
-0.065
-0.0675
-0.0675
-0.06625
-0.06875
-0.07125
-0.06875
-0.05625
-0.04125
-0.03
-0.02625
-0.03125
-0.0425
-0.05875
-0.0675
-0.05875
-0.04375
-0.03625
-0.0375
-0.04375
-0.045
-0.05
-0.05625
-0.06
-0.0625
-0.07125
-0.07875
-0.0775
-0.06375
-0.04125
-0.01625
0
0.00125
-0.01
-0.04625
-0.0575
-0.06375
-0.06625
-0.06625
-0.065
-0.06125
-0.04875
-0.02875
-0.0125
-0.01
-0.0175
-0.03125
-0.04375
-0.05
-0.04375
-0.03875
-0.03625
-0.0375
-0.03375
-0.02375
-0.00875
0
-0.00625
-0.02375
-0.0475
-0.0625
-0.06
-0.0475
-0.0325
-0.02375
-0.015
-0.01375
-0.02125
-0.03
-0.0325
-0.02
-0.0025
0.01125
0.02375
0.0275
0.02625
0.01625
0.0025
-0.00375
-0.005
-0.0025
-0.0025
-0.0025
-0.00375
-0.0025
-0.0025
0.0025
0.01125
0.025
0.0375
0.0475
0.05625
0.05
0.03375
0.01625
0.005
0.01125
0.01625
0.01625
0.01
0.01375
0.01875
0.03
0.03125
0.02
0.00625
-0.0075
-0.025
-0.03875
-0.05125
-0.04625
-0.03625
-0.02625
-0.02125
-0.0275
-0.03375
-0.03875
-0.0425
-0.03
-0.01125
0.00625
0.0175
0.015
-0.0025
-0.02875
-0.04875
-0.06875
-0.09
-0.11625
-0.13125
-0.12875
-0.1125
-0.0925
-0.075
-0.05625
-0.02625
0.075
0.0975
0.12375
0.16125
0.21125
0.27375
0.3425
0.4175
0.48375
0.52
0.50375
0.48
0.46875
0.465
0.415
0.34375
0.25125
0.15625
-0.08625
-0.15
-0.19375
-0.21375
-0.21125
-0.195
-0.17375
-0.1425
-0.10125
-0.06
-0.03375
-0.025
-0.03125
-0.0375
-0.04375
-0.06125
-0.08625
-0.1
-0.09625
-0.07625
-0.015
-0.005
-0.00125
0.00125
0.005
0.0075
0.0125
0.02125
0.025
0.02
-0.0075
-0.015
-0.01375
-0.005
0.025
0.03375
0.0325
0.0325
0.0575
0.0625
0.065
0.065
0.06375
0.07
0.07625
0.0775
0.0625
0.02
0.005
0.005
0.0125
0.0425
0.06625
0.0875
0.105
0.12375
0.11875
0.115
0.11375
0.1225
0.13375
0.1375
0.1325
0.125
0.12125
0.12875
0.14875
0.17
0.18625
0.19625
0.2
0.2025
0.2075
0.21375
0.2225
0.2375
0.2275
0.2225
0.22875
0.24375
0.28125
0.3025
0.32
0.33125
0.33375
0.33625
0.34125
0.34625
0.34
0.33625
0.33875
0.34375
0.33375
0.3425
0.35125
0.35125
0.34875
0.33875
0.33375
0.32875
0.3225
0.30875
0.29
0.27125
0.25875
0.24625
0.23625
0.23
0.22875
0.225
0.21375
0.11375
0.10125
0.09625
0.095
0.09
0.08
0.06375
0.04375
0.02625
0.0075
0.0075
0.01
0.00125
-0.05125
-0.085
-0.105
-0.11
-0.14
-0.135
-0.12625
-0.115
-0.11125
-0.12
-0.12875
-0.1325
-0.13
-0.12125
-0.12
-0.1225
-0.13125
-0.14125
-0.1475
-0.14875
-0.14
-0.125
-0.1075
-0.09625
-0.09375
-0.09875
-0.105
-0.11
-0.1125
-0.10875
-0.1075
-0.10875
-0.1225
-0.13
-0.13875
-0.13625
-0.1075
-0.10875
-0.10375
-0.1
-0.1025
-0.10625
-0.10875
-0.1075
-0.1075
-0.1075
-0.11
-0.1075
-0.105
-0.10125
-0.0975
-0.085
-0.07
-0.07375
-0.08125
-0.0975
-0.08375
-0.07
-0.06125
-0.06125
-0.06125
-0.0625
-0.065
-0.075
-0.0875
-0.0925
-0.0875
-0.09125
-0.10125
-0.11125
-0.1125
-0.11375
-0.11
-0.10375
-0.09375
-0.07375
-0.0775
-0.08
-0.08
-0.08875
-0.095
-0.105
-0.115
-0.12625
-0.11875
-0.10375
-0.08625
-0.0775
-0.07875
-0.075
-0.0675
-0.09625
-0.09875
-0.09875
-0.0925
-0.06875
-0.0625
-0.0625
-0.06625
-0.08375
-0.08875
-0.0925
-0.0925
-0.105
-0.12
-0.12375
-0.1175
-0.08875
-0.08125
-0.0775
-0.07625
-0.0775
-0.07375
-0.07125
-0.07375
-0.07875
-0.085
-0.08875
-0.09
-0.0875
-0.085
-0.08
-0.07625
-0.07125
-0.0725
-0.1
-0.09625
-0.085
-0.0725
-0.07375
-0.07625
-0.08125
-0.08375
-0.08375
-0.085
-0.09125
-0.0975
-0.1025
-0.1
-0.09125
-0.0825
-0.0775
-0.0525
-0.06625
-0.0775
-0.0775
-0.06875
-0.0625
-0.06125
-0.0575
-0.05375
-0.04875
-0.0425
-0.035
-0.03625
-0.0475
-0.06875
-0.10625
-0.10625
-0.1
-0.09125
-0.0775
-0.0725
-0.06125
-0.045
-0.0375
-0.04125
-0.0575
-0.075
-0.08375
-0.08375
-0.0775
-0.0675
-0.06375
-0.06875
-0.07375
-0.07375
-0.0675
-0.05
-0.03125
-0.05625
-0.0675
-0.07125
-0.06875
-0.06375
-0.06125
-0.0625
-0.06875
-0.0675
-0.06375
-0.06
-0.0525
-0.04
-0.02875
-0.0275
-0.04
-0.05875
-0.0675
-0.05625
-0.0575
-0.06
-0.05375
-0.04
-0.02625
-0.015
-0.01125
-0.02125
-0.04875
-0.08
-0.10125
-0.09875
-0.08625
-0.05375
-0.0325
-0.015
-0.01
-0.0225
-0.01875
-0.02125
-0.02625
-0.02875
-0.02875
-0.0275
-0.025
-0.01125
0
0.01
0.02
0.0175
0.00875
0.00625
0.0125
0.025
0.03375
0.02125
0.0075
-0.00125
-0.005
0.00125
0.00375
-0.005
-0.025
-0.04
-0.0225
0.0025
0.02625
0.00375
-0.03375
-0.07375
-0.0975
-0.06875
-0.06125
-0.05875
-0.055
-0.05125
-0.04
-0.03125
-0.025
-0.0275
-0.05125
-0.06375
-0.07
-0.07375
-0.07375
-0.06875
-0.05375
-0.0425
-0.0475
0.445
0.425
0.3875
0.32625
0.245
0.1575
0.0725
-0.00625
-0.07875
-0.12625
-0.1525
-0.15875
-0.155
-0.14875
-0.14625
-0.1475
-0.14375
-0.1375
-0.13
-0.12
-0.09875
-0.09
-0.08125
-0.0675
-0.04625
-0.02875
-0.0125
-0.0025
-0.00375
-0.015
-0.02875
-0.04375
-0.04625
-0.04125
-0.0325
-0.01875
-0.00875
0.00375
0.0175
0.02375
0.0225
0.02875
0.025
0.01125
-0.00125
-0.01
-0.01
-0.01125
-0.01375
-0.01625
-0.01625
-0.01
0.0075
0.03125
0.055
0.0725
0.08
0.07625
0.06125
0.0425
0.0325
0.03625
0.04625
0.06125
0.07625
0.08625
0.0875
0.0875
0.08875
0.10125
0.11875
0.13375
0.14
0.13375
0.1275
0.11375
0.10375
0.10125
0.10625
0.11375
0.11875
0.12625
0.14125
0.19625
0.21625
0.225
0.225
0.2275
0.23
0.225
0.22125
0.22
0.21875
0.23125
0.2525
0.28
0.31125
0.34
0.35875
0.36875
0.3675
0.3575
0.34375
0.3325
0.32625
0.325
0.32125
0.31875
0.3225
0.335
0.34625
0.35
0.3475
0.34375
0.335
0.32375
0.31625
0.315
0.315
0.30875
0.2975
0.27
0.26375
0.2575
0.2425
0.1925
0.17375
0.15875
0.14
0.1275
0.12125
0.11875
0.1125
0.10375
0.09
0.065
0.0575
0.0525
0.0425
0.0225
-0.02
-0.0375
-0.06125
-0.08125
-0.0875
-0.08
-0.07125
-0.06
-0.07
-0.10375
-0.1375
-0.1625
-0.17625
-0.18
-0.1775
-0.16875
-0.1625
-0.1575
-0.145
-0.1325
-0.1175
-0.10875
-0.1075
-0.1125
-0.1275
-0.14125
-0.1475
-0.15
-0.14625
-0.13
-0.1225
-0.11625
-0.11125
-0.11125
-0.115
-0.10875
-0.09625
-0.09
-0.095
-0.1
-0.105
-0.10875
-0.10625
-0.09625
-0.08625
-0.09125
-0.11125
-0.1325
-0.1375
-0.1275
-0.11375
-0.1075
-0.105
-0.10125
-0.09625
-0.09125
-0.08375
-0.08
-0.08125
-0.085
-0.08875
-0.08875
-0.09
-0.09625
-0.10625
-0.11875
-0.13125
-0.13125
-0.09875
-0.07875
-0.06625
-0.0575
-0.05625
-0.0675
-0.08
-0.08375
-0.08375
-0.08
-0.07375
-0.06875
-0.07125
-0.08625
-0.0975
-0.0975
-0.065
-0.05625
-0.06
-0.06875
-0.0825
-0.11375
-0.12125
-0.12125
-0.11125
-0.10625
-0.1225
-0.13875
-0.14125
-0.12375
-0.08375
-0.07625
-0.075
-0.07375
-0.07125
-0.07125
-0.07375
-0.0775
-0.085
-0.09625
-0.105
-0.11
-0.11125
-0.1075
-0.095
-0.0775
-0.06625
-0.06875
-0.0775
-0.08625
-0.09875
-0.10375
-0.10125
-0.0875
-0.075
-0.06875
-0.06875
-0.0675
-0.0625
-0.05625
-0.05
-0.05125
-0.06125
-0.07875
-0.0925
-0.10125
-0.1075
-0.1125
-0.11125
-0.09875
-0.095
-0.08875
-0.08125
-0.06625
-0.05625
-0.05375
-0.05875
-0.0775
-0.0975
-0.1125
-0.1125
-0.10375
-0.095
-0.085
-0.07125
-0.0725
-0.07625
-0.07875
-0.08125
-0.0825
-0.0825
-0.07875
-0.06625
-0.05
-0.03375
-0.03125
-0.04
-0.05
-0.06125
-0.07625
-0.08375
-0.0875
-0.09125
-0.0925
-0.085
-0.07125
-0.05875
-0.0475
-0.04
-0.03375
-0.03625
-0.04375
-0.0525
-0.0575
-0.0575
-0.06375
-0.0725
-0.07625
-0.07375
-0.0725
-0.07375
-0.07625
-0.075
-0.0725
-0.06875
-0.06125
-0.05
-0.04375
-0.0475
-0.0475
-0.04875
-0.0525
-0.055
-0.0575
-0.06125
-0.06125
-0.0575
-0.05375
-0.05
-0.0425
-0.0375
-0.03625
-0.04
-0.03875
-0.0275
-0.02375
-0.04125
-0.06375
-0.0725
-0.06625
-0.05125
-0.04125
-0.04375
-0.055
-0.06375
-0.06875
-0.06875
-0.0625
-0.0525
-0.04375
-0.03625
-0.0325
-0.0325
-0.0325
-0.03875
-0.0475
-0.04875
-0.0425
-0.03625
-0.02875
-0.01875
-0.00625
0.0075
0.0175
0.00875
-0.00375
-0.02
-0.0325
-0.0375
-0.035
-0.0275
-0.0125
0.0075
0.02875
0.0375
0.035
0.02125
0.00875
0.00125
0
0.00125
0.0075
0.01125
0.0125
0.01375
0.015
0.02
0.0225
0.01625
0.00375
-0.0075
-0.01625
-0.0175
-0.0175
-0.0125
-0.0075
-0.00875
-0.015
-0.02125
-0.0275
-0.03875
-0.0425
-0.04375
-0.045
-0.0475
-0.06125
-0.06375
-0.06375
-0.06
-0.055
-0.03
-0.02625
-0.02625
-0.02875
-0.04
-0.05375
-0.07
-0.08375
-0.0925
-0.0925
-0.08625
-0.0775
-0.065
-0.0475
-0.02875
-0.0125
-0.00125
0.0125
0.0325
0.06375
0.11
0.1725
0.245
0.315
0.3675
0.405
0.42875
0.44
0.43375
0.4175
0.3975
0.37625
0.33875
0.305
0.24875
0.17875
0.10625
0.03875
-0.02875
-0.10125
-0.17375
-0.2275
-0.2575
-0.25
-0.215
-0.1625
-0.1075
-0.04125
-0.04
-0.055
-0.0675
-0.0725
-0.06375
-0.05125
-0.03875
-0.02875
-0.02875
-0.02125
-0.01
0.0025
0.01625
0.02375
0.02125
0.015
0.01125
0.00625
0.00625
0.00625
0.00875
0.01625
0.0225
0.02375
0.0225
0.0225
0.02875
0.04125
0.05
0.0425
0.01875
-0.00375
-0.01125
-0.005
0.00875
0.02375
0.03625
0.06625
0.07375
0.07125
0.065
0.05875
0.0575
0.0575
0.05375
0.05375
0.06125
0.0825
0.095
0.11125
0.135
0.16
0.16
0.12875
0.10125
0.095
0.1075
0.13375
0.13875
0.14375
0.15
0.15375
0.1575
0.1725
0.19
0.20375
0.20375
0.2
0.2025
0.215
0.2375
0.26625
0.295
0.32
0.325
0.31625
0.29875
0.29125
0.28625
0.29
0.29625
0.31
0.32375
0.33
0.33375
0.34
0.35125
0.365
0.3825
0.39
0.38
0.36375
0.345
0.32625
0.30125
0.3
0.30375
0.31125
0.31875
0.325
0.325
0.31875
0.31375
0.3075
0.27125
0.24375
0.215
0.1875
0.16375
0.14375
0.14625
0.14625
0.14125
0.1325
0.11125
0.10125
0.08375
0.06
0.03125
-0.0225
-0.05
-0.07625
-0.08625
-0.0675
-0.05625
-0.0575
-0.065
-0.07625
-0.0875
-0.09625
-0.10125
-0.09875
-0.0925
-0.09
-0.0975
-0.11375
-0.13
-0.13875
-0.13875
-0.13625
-0.13625
-0.14
-0.1425
-0.14
-0.13125
-0.12375
-0.12375
-0.13
-0.13875
-0.14375
-0.1475
-0.14625
-0.135
-0.11
-0.06125
-0.0475
-0.04625
-0.06375
-0.0925
-0.1225
-0.13875
-0.1425
-0.14
-0.1325
-0.125
-0.12
-0.11125
-0.0975
-0.0875
-0.07
-0.07125
-0.0825
-0.09625
-0.105
-0.11
-0.1075
-0.10375
-0.10125
-0.09875
-0.1
-0.09875
-0.095
-0.0825
-0.0675
-0.0525
-0.04375
-0.0425
-0.04875
-0.065
-0.08875
-0.11625
-0.135
-0.13875
-0.12875
-0.1125
-0.09625
-0.08
-0.07125
-0.06875
-0.07375
-0.07875
-0.075
-0.0625
-0.045
-0.04875
-0.0575
-0.06625
-0.0775
-0.0925
-0.105
-0.1125
-0.1175
-0.12125
-0.10875
-0.0975
-0.0825
-0.0625
-0.04125
-0.025
-0.045
-0.07625
-0.10625
-0.125
-0.13125
-0.1275
-0.11125
-0.0875
-0.06875
-0.06875
-0.08125
-0.0925
-0.0975
-0.09625
-0.09375
-0.08625
-0.07125
-0.0525
-0.03875
-0.0375
-0.05
-0.06875
-0.085
-0.09375
-0.10125
-0.10625
-0.10625
-0.10375
-0.09125
-0.06625
-0.04625
-0.04125
-0.04875
-0.0575
-0.0675
-0.0825
-0.09875
-0.1025
-0.09625
-0.09
-0.085
-0.0825
-0.085
-0.0825
-0.07625
-0.06375
-0.055
-0.05625
-0.06
-0.06
-0.06375
-0.0625
-0.06375
-0.06875
-0.08125
-0.09125
-0.09125
-0.0725
-0.06125
-0.05375
-0.0475
-0.04
-0.03125
-0.04
-0.05375
-0.06625
-0.06625
-0.06125
-0.06125
-0.06375
-0.07375
-0.0875
-0.0975
-0.09875
-0.0875
-0.065
-0.03875
-0.01875
-0.0125
-0.02
-0.035
-0.055
-0.0725
-0.08625
-0.08625
-0.07875
-0.06875
-0.06625
-0.065
-0.0575
-0.045
-0.02625
-0.0075
0
0
-0.00375
-0.0275
-0.0475
-0.0675
-0.07625
-0.0725
-0.0625
-0.055
-0.04875
-0.045
-0.04125
-0.01625
0
0.01375
0.0275
0.0275
0.015
0
-0.0075
-0.00875
-0.00625
-0.005
-0.0025
0.00375
0.01875
0.02875
0.02375
0.0125
0.00625
0
-0.00625
-0.01375
-0.02125
-0.02625
-0.0325
-0.04
-0.0475
-0.05125
-0.05875
-0.0625
-0.05875
-0.05375
-0.04625
-0.04375
-0.04875
-0.0575
-0.07
-0.0775
-0.08
-0.085
-0.09
-0.09125
-0.08625
-0.07125
-0.05625
-0.04
-0.025
-0.02
-0.0225
-0.03375
-0.0525
-0.0725
-0.1025
-0.10625
-0.105
-0.0975
-0.08375
-0.04625
-0.02
0.0125
0.0525
0.0875
0.17
0.21625
0.2625
0.30375
0.3425
0.3825
0.37875
0.37875
0.39
0.4075
0.4025
0.35875
0.29375
0.215
0.135
-0.02875
-0.105
-0.165
-0.19875
-0.21125
-0.20625
-0.1875
-0.16625
-0.14
-0.1175
-0.095
-0.08125
-0.08375
-0.08375
-0.08125
-0.0725
-0.04875
-0.04125
-0.035
-0.03
-0.02625
-0.02625
-0.03375
-0.04375
-0.05125
-0.055
-0.0525
-0.04625
-0.0325
-0.01625
-0.00125
0.00375
0.00625
0.00625
0.01
0.02125
0.04375
0.05875
0.06
0.04875
0.03125
0.00875
-0.00625
-0.0125
-0.00375
0.0075
0.01875
0.02125
0.02875
0.04125
0.04875
0.0475
0.04375
0.04
0.0425
0.0475
0.05125
0.0525
0.05
0.05125
0.055
0.06
0.07
0.07875
0.08125
0.07375
0.065
0.06625
0.07875
0.1325
0.15625
0.16875
0.175
0.17625
0.17375
0.175
0.1825
0.195
0.2
0.19875
0.19375
0.195
0.2025
0.2075
0.215
0.225
0.2375
0.25
0.255
0.255
0.255
0.2625
0.26625
0.275
0.29
0.31
0.34125
0.34375
0.33875
0.3325
0.3225
0.31625
0.31625
0.3175
0.31875
0.32
0.325
0.33375
0.3425
0.35125
0.36375
0.36
0.34375
0.3225
0.30125
0.28125
0.27
0.26875
0.27
0.2625
0.23375
0.19625
0.15875
0.1325
0.12125
0.1175
0.11875
0.12
0.11125
0.0925
0.06875
0.05
0.0425
0.045
0.0475
0.03875
0.0175
-0.00625
-0.03125
-0.0525
-0.07
-0.08375
-0.0975
-0.105
-0.10875
-0.11
-0.11375
-0.11375
-0.11125
-0.1125
-0.11375
-0.11625
-0.12125
-0.12875
-0.13375
-0.13875
-0.14125
-0.1425
-0.13625
-0.12625
-0.12
-0.1175
-0.12
-0.13125
-0.1375
-0.145
-0.15125
-0.16
-0.165
-0.16125
-0.1475
-0.13375
-0.12
-0.11125
-0.10875
-0.10875
-0.10625
-0.09625
-0.085
-0.07375
-0.06625
-0.07375
-0.09375
-0.12125
-0.14375
-0.1575
-0.16125
-0.155
-0.14375
-0.13125
-0.12125
-0.105
-0.09
-0.08
-0.07625
-0.06875
-0.05875
-0.0475
-0.04625
-0.05625
-0.07625
-0.095
-0.11625
-0.1225
-0.1225
-0.11875
-0.10625
-0.10375
-0.1
-0.09375
-0.08
-0.06625
-0.0625
-0.07
-0.08375
-0.10125
-0.115
-0.12375
-0.125
-0.11875
-0.1075
-0.0975
-0.09375
-0.0925
-0.0925
-0.0875
-0.07875
-0.07
-0.06625
-0.07
-0.07
-0.07625
-0.08625
-0.095
-0.09375
-0.085
-0.07875
-0.08125
-0.1
-0.1075
-0.105
-0.10125
-0.09375
-0.07375
-0.06375
-0.0625
-0.07375
-0.0825
-0.0775
-0.0825
-0.09125
-0.1025
-0.11125
-0.115
-0.11
-0.10125
-0.09
-0.05875
-0.04625
-0.04375
-0.05125
-0.0625
-0.06875
-0.07
-0.0775
-0.09
-0.1025
-0.10375
-0.10125
-0.09875
-0.1
-0.095
-0.08875
-0.075
-0.06625
-0.06
-0.05875
-0.06
-0.065
-0.07125
-0.0675
-0.0625
-0.05875
-0.06375
-0.075
-0.09375
-0.115
-0.11625
-0.09625
-0.07
-0.05625
-0.04875
-0.04625
-0.04875
-0.05625
-0.0625
-0.06375
-0.06125
-0.05375
-0.0475
-0.05125
-0.0625
-0.08375
-0.08125
-0.06875
-0.0575
-0.05125
-0.05
-0.055
-0.06
-0.055
-0.0425
-0.03875
-0.04375
-0.0625
-0.0675
-0.0725
-0.07375
-0.0675
-0.05125
-0.03625
-0.0275
-0.0275
-0.03375
-0.03875
-0.04125
-0.04375
-0.0525
-0.06875
-0.08375
-0.08875
-0.07875
-0.06375
-0.04875
-0.03375
-0.01625
-0.00625
-0.00875
-0.02125
-0.0425
-0.07125
-0.09125
-0.09375
-0.08625
-0.075
-0.065
-0.045
-0.03
-0.02
-0.00875
0.01
0.02
0.02375
0.01875
0.00625
-0.0175
-0.0275
-0.0325
-0.03375
-0.02625
-0.0125
-0.00125
0.0075
0.01875
0.03375
0.0475
0.04875
0.01
-0.00125
-0.00875
-0.00625
0.00375
0.0225
0.0375
0.04
0.03
0.0175
0.01375
0.01
0.0025
-0.005
-0.0125
-0.01375
-0.00625
0.00875
0.01875
0.01875
0.01375
0.0075
0
-0.0175
-0.05
-0.0875
-0.10875
-0.1075
-0.06
-0.03375
-0.02
-0.01875
-0.01625
-0.0325
-0.05125
-0.06625
-0.07
-0.06625
-0.06125
-0.05625
-0.05125
-0.04
-0.03375
-0.03375
-0.045
-0.05875
-0.0725
-0.07875
-0.08
-0.08125
-0.0875
-0.0925
-0.0875
-0.07125
-0.0475
-0.01875
0.0125
0.0525
0.095
0.1375
0.18
0.225
0.27
0.32625
0.39
0.4475
0.48375
0.4875
0.4775
0.4675
0.46875
0.465
0.44125
0.39375
0.32375
0.24125
0.15375
0.06625
-0.01875
-0.095
-0.15125
-0.18625
-0.2025
-0.1975
-0.155
-0.13375
-0.115
-0.1
-0.0875
-0.08125
-0.07375
-0.07
-0.0625
-0.05625
-0.04875
-0.03875
-0.0225
-0.0125
-0.00875
-0.01375
-0.0225
-0.02875
-0.03125
-0.03
-0.0275
-0.01875
-0.0075
0.00125
0.0125
0.0225
0.0325
0.03375
0.025
0.015
0.005
0
-0.005
-0.01
-0.01375
-0.00875
0.0025
0.01625
0.0125
0.0125
0.02125
0.03375
0.045
0.05625
0.06375
0.065
0.06375
0.06625
0.07
0.07375
0.075
0.0775
0.075
0.06875
0.06875
0.0725
0.075
0.08375
0.0925
0.1
0.10375
0.1125
0.13
0.15375
0.175
0.18625
0.1825
0.1725
0.1625
0.15625
0.15375
0.155
0.1575
0.1575
0.15875
0.17
0.18875
0.2125
0.23
0.24125
0.25375
0.26125
0.265
0.26375
0.26125
0.26625
0.2725
0.27625
0.2825
0.29625
0.3125
0.33125
0.35875
0.36375
0.3625
0.35375
0.345
0.325
0.32625
0.33625
0.3475
0.35625
0.355
0.34375
0.32375
0.32375
0.33125
0.33625
0.33625
0.31375
0.295
0.27375
0.25875
0.25
0.2475
0.24375
0.23375
0.21375
0.18625
0.16
0.14
0.13125
0.13375
0.13375
0.125
0.0975
0.06375
0.035
0.02125
0.015
0.01
0.00375
0
-0.01125
-0.0275
-0.0475
-0.0625
-0.075
-0.0775
-0.07375
-0.07125
-0.07
-0.075
-0.09125
-0.11
-0.12625
-0.12875
-0.11875
-0.105
-0.09375
-0.0925
-0.1025
-0.12
-0.13125
-0.13375
-0.13125
-0.1275
-0.11625
-0.11125
-0.1175
-0.12875
-0.1375
-0.14
-0.13375
-0.125
-0.12
-0.1175
-0.1225
-0.13
-0.1225
-0.11125
-0.09625
-0.085
-0.08375
-0.08375
-0.08375
-0.0875
-0.09625
-0.1075
-0.115
-0.11125
-0.1025
-0.09125
-0.08875
-0.09
-0.095
-0.09375
-0.0925
-0.08875
-0.0875
-0.08125
-0.07875
-0.08
-0.0875
-0.0975
-0.1025
-0.1075
-0.10875
-0.11375
-0.1125
-0.1
-0.07625
-0.0575
-0.045
-0.03375
-0.0225
-0.03
-0.0475
-0.06375
-0.08
-0.08875
-0.0925
-0.09625
-0.09875
-0.11
-0.1175
-0.11375
-0.1025
-0.08125
-0.06
-0.0475
-0.045
-0.05125
-0.06375
-0.0775
-0.08375
-0.08375
-0.07625
-0.0775
-0.0875
-0.1
-0.1125
-0.12
-0.1175
-0.10875
-0.09625
-0.085
-0.07875
-0.07875
-0.08125
-0.08625
-0.09
-0.09125
-0.08375
-0.07
-0.06125
-0.0625
-0.075
-0.09125
-0.10375
-0.1125
-0.105
-0.0925
-0.07625
-0.065
-0.0575
-0.05375
-0.05375
-0.05375
-0.05
-0.04625
-0.04875
-0.05375
-0.06
-0.06875
-0.0825
-0.08625
-0.085
-0.07875
-0.06625
-0.04875
-0.04125
-0.045
-0.05625
-0.06625
-0.0775
-0.0925
-0.09875
-0.09375
-0.08375
-0.07875
-0.075
-0.07375
-0.06875
-0.06
-0.05625
-0.05875
-0.06875
-0.085
-0.0975
-0.1025
-0.09625
-0.0825
-0.06625
-0.05
-0.035
-0.03
-0.03625
-0.04625
-0.05125
-0.0575
-0.065
-0.0725
-0.0725
-0.06875
-0.05375
-0.04
-0.025
-0.01875
-0.01875
-0.02125
-0.02375
-0.0375
-0.05625
-0.075
-0.0825
-0.08125
-0.08125
-0.08125
-0.0825
-0.0775
-0.06625
-0.05125
-0.03375
-0.02125
-0.015
-0.01
-0.01875
-0.03875
-0.06
-0.0725
-0.07625
-0.07625
-0.07
-0.065
-0.05875
-0.04625
-0.0325
-0.02125
-0.0175
-0.0225
-0.0275
-0.03375
-0.04375
-0.0575
-0.0675
-0.065
-0.0525
-0.045
-0.05
-0.06125
-0.07125
-0.0725
-0.06
-0.04375
-0.02375
-0.0075
0.00125
0.005
0.0025
-0.0075
-0.0225
-0.03125
-0.0325
-0.0275
-0.0275
-0.0325
-0.0375
-0.0325
-0.01875
-0.0075
0
0.005
0.00375
-0.00125
-0.01
-0.0125
-0.01125
-0.0075
-0.00625
-0.00625
-0.0025
0.00375
0.0125
0.01875
0.03
0.0325
0.03
0.02375
0.0225
0.02
0.02125
0.01875
0.01625
0.02
0.02875
0.04125
0.04875
0.04625
0.04125
0.03625
0.03125
0.02
0
-0.025
-0.05125
-0.07125
-0.08
-0.08
-0.06875
-0.05375
-0.045
-0.04375
-0.04125
-0.035
-0.03125
-0.03
-0.03
-0.0325
-0.03375
-0.0375
-0.055
-0.0775
-0.0875
-0.08125
-0.06625
-0.0525
-0.0475
-0.05125
-0.05375
-0.055
-0.0525
-0.05
-0.0475
-0.04
-0.03375
-0.0275
-0.02125
-0.01
0.0025
0.0275
0.065
0.16625
0.2175
0.2725
0.32625
0.38125
0.44
0.4975
0.53375
0.54
0.52375
0.49875
0.46125
0.41375
0.3525
0.20625
0.1375
0.07375
0.01
-0.0525
-0.1575
-0.17875
-0.1825
-0.17875
-0.16875
-0.15375
-0.13875
-0.11625
-0.105
-0.08125
-0.05
-0.01875
-0.00375
-0.015
-0.03
-0.0425
-0.04375
-0.03375
-0.02375
-0.02375
-0.03
-0.03375
-0.03875
-0.03625
-0.02625
-0.00625
0.01
0.02625
0.0375
0.0375
0.02375
0.0125
0.01875
0.0325
0.04625
0.0525
0.05375
0.04875
0.04
0.02375
0.00625
-0.00375
-0.00375
0.005
0.025
0.0475
0.06375
0.075
0.08125
0.0825
0.07875
0.07375
0.0725
0.07125
0.065
0.05125
0.03375
0.02625
0.0325
0.0525
0.0775
0.11375
0.115
0.11
0.105
0.11125
0.1225
0.135
0.1475
0.1575
0.1675
0.17375
0.17625
0.17875
0.1825
0.1875
0.18875
0.185
0.18125
0.18375
0.1975
0.22125
0.24625
0.26125
0.2675
0.26875
0.2925
0.30375
0.3125
0.315
0.32125
0.32375
0.32125
0.3175
0.31625
0.31875
0.32375
0.32375
0.31875
0.32
0.32625
0.3375
0.3525
0.3675
0.3775
0.38125
0.38125
0.37625
0.3675
0.36
0.355
0.3475
0.33
0.305
0.28375
0.275
0.27125
0.27375
0.27625
0.27375
0.2675
0.25125
0.2275
0.20375
0.1825
0.16375
0.145
0.1275
0.105
0.08
0.055
0.04
0.04
0.04875
0.05
0.0125
-0.01125
-0.02875
-0.03875
-0.0475
-0.05375
-0.055
-0.06
-0.07
-0.095
-0.105
-0.11
-0.11125
-0.11625
-0.1175
-0.115
-0.115
-0.11625
-0.12
-0.12
-0.115
-0.11125
-0.1025
-0.09375
-0.0925
-0.10625
-0.1275
-0.14125
-0.14375
-0.1325
-0.11875
-0.1125
-0.11
-0.11
-0.1125
-0.11125
-0.105
-0.10125
-0.1
-0.105
-0.11
-0.1125
-0.12
-0.12875
-0.13125
-0.11875
-0.09375
-0.07375
-0.07125
-0.0825
-0.08875
-0.085
-0.0875
-0.0925
-0.1
-0.10375
-0.1025
-0.09375
-0.08625
-0.0825
-0.08625
-0.095
-0.10375
-0.105
-0.09875
-0.09
-0.08
-0.06625
-0.06
-0.0625
-0.0725
-0.08375
-0.095
-0.10125
-0.09125
-0.08375
-0.0775
-0.08
-0.08375
-0.08625
-0.08
-0.065
-0.0525
-0.04625
-0.055
-0.0725
-0.09375
-0.11375
-0.12125
-0.11375
-0.09375
-0.075
-0.06375
-0.0575
-0.05625
-0.0575
-0.06
-0.06125
-0.06
-0.0575
-0.07125
-0.09625
-0.11875
-0.1275
-0.12125
-0.1125
-0.105
-0.0975
-0.09125
-0.08
-0.07375
-0.075
-0.0875
-0.10125
-0.1
-0.09125
-0.075
-0.06375
-0.06125
-0.06375
-0.06875
-0.0725
-0.07
-0.06625
-0.0625
-0.065
-0.0725
-0.0825
-0.095
-0.105
-0.105
-0.09
-0.0675
-0.05125
-0.04625
-0.0525
-0.06625
-0.075
-0.0775
-0.0775
-0.08
-0.08875
-0.09
-0.08625
-0.08
-0.075
-0.0775
-0.08
-0.08
-0.08
-0.07875
-0.0725
-0.07125
-0.07625
-0.07375
-0.07
-0.065
-0.0625
-0.06
-0.05875
-0.06375
-0.06875
-0.06625
-0.05125
-0.045
-0.04375
-0.04375
-0.0425
-0.05125
-0.05875
-0.065
-0.0725
-0.07625
-0.05875
-0.0475
-0.045
-0.04875
-0.05375
-0.05875
-0.07
-0.0825
-0.08875
-0.0825
-0.06625
-0.05125
-0.04625
-0.04375
-0.03875
-0.0325
-0.0325
-0.0375
-0.0425
-0.045
-0.04875
-0.05125
-0.05
-0.0525
-0.05625
-0.05875
-0.05625
-0.05
-0.04
-0.03375
-0.03625
-0.0425
-0.0425
-0.03
-0.02125
-0.025
-0.0325
-0.0375
-0.04375
-0.05625
-0.06875
-0.08
-0.08375
-0.08125
-0.0725
-0.05875
-0.05
-0.05375
-0.0525
-0.04
-0.02625
-0.0225
-0.025
-0.02625
-0.0275
-0.03375
-0.03875
-0.035
-0.0275
-0.00125
0.00375
0.00375
0.00125
-0.00375
-0.00375
0
0.00375
0.00625
0.00375
-0.0025
-0.01375
-0.02125
-0.02375
-0.01875
-0.00625
0.00875
0.0225
0.0275
0.02375
0.01125
-0.005
-0.01875
-0.01625
0
0.01875
0.035
0.0375
0.03
0.0225
0.02
0.01625
0.01
0.0075
0.0075
0.00625
0
-0.00625
-0.01375
-0.01
-0.0025
0.0025
0.00125
-0.005
-0.01375
-0.0225
-0.02875
-0.02875
-0.0275
-0.02125
-0.02625
-0.03625
-0.04875
-0.06125
-0.06875
-0.075
-0.075
-0.04875
-0.035
-0.03375
-0.0425
-0.05375
-0.06
-0.06125
-0.05875
-0.05375
-0.05125
-0.0575
-0.0725
-0.08875
-0.095
-0.0925
-0.0775
-0.05875
-0.0425
-0.0275
-0.005
0.0325
0.08
0.14
0.19625
0.245
0.32125
0.36125
0.40875
0.455
0.47875
0.4775
0.465
0.46125
0.4625
0.445
0.405
0.345
0.2675
0.17625
0.08875
0.0175
-0.04125
-0.1
-0.15375
-0.1925
-0.2075
-0.20125
-0.18375
-0.16125
-0.14
-0.11875
-0.1
-0.0775
-0.05375
-0.03625
-0.02625
-0.025
-0.025
-0.0225
-0.01875
-0.01125
0
0.0075
0.0075
0.0075
0.005
0
-0.01375
-0.03375
-0.0525
-0.05875
-0.05125
-0.03
-0.00375
0.01625
0.0175
0.02375
0.0325
0.04125
0.04375
0.0425
0.0375
0.03
0.0225
0.025
0.0325
0.03875
0.0425
0.045
0.0475
0.045
0.04
0.03875
0.04875
0.06625
0.0875
0.10125
0.105
0.10375
0.10625
0.1075
0.105
0.10125
0.1025
0.10375
0.1
0.09875
0.10375
0.11625
0.13375
0.15
0.1575
0.155
0.155
0.1575
0.1775
0.19375
0.21
0.22125
0.23
0.235
0.23375
0.23125
0.23375
0.24125
0.27625
0.2825
0.28125
0.27375
0.26375
0.26
0.27
0.28875
0.305
0.315
0.33875
0.35125
0.35875
0.3625
0.36625
0.36625
0.35375
0.33625
0.325
0.3225
0.32875
0.34
0.34375
0.3475
0.355
0.365
0.3675
0.35625
0.3325
0.3125
0.29875
0.29625
0.2975
0.29875
0.29
0.2725
0.25
0.23
0.21625
0.205
0.19125
0.1775
0.14625
0.125
0.105
0.09125
0.08375
0.075
0.0625
0.04625
0.03
0.0175
0.00375
-0.00875
-0.02125
-0.02875
-0.035
-0.04875
-0.06875
-0.08875
-0.1025
-0.10625
-0.105
-0.10375
-0.1
-0.08875
-0.08125
-0.08875
-0.10375
-0.11625
-0.12
-0.1125
-0.10125
-0.09375
-0.11125
-0.12875
-0.14875
-0.15875
-0.155
-0.14375
-0.1325
-0.12625
-0.12625
-0.12625
-0.12625
-0.1225
-0.1175
-0.1175
-0.11875
-0.1175
-0.11
-0.105
-0.10875
-0.115
-0.12
-0.12
-0.11625
-0.10625
-0.0925
-0.08625
-0.08875
-0.095
-0.1
-0.1
-0.0925
-0.085
-0.07875
-0.07125
-0.07
-0.06625
-0.06625
-0.06875
-0.0725
-0.07875
-0.08125
-0.08
-0.0825
-0.085
-0.0925
-0.0875
-0.07875
-0.07625
-0.08
-0.085
-0.09125
-0.09375
-0.095
-0.09625
-0.10125
-0.1125
-0.115
-0.11
-0.10125
-0.095
-0.08875
-0.08125
-0.07125
-0.05875
-0.05125
-0.05875
-0.07125
-0.0825
-0.09
-0.09625
-0.09875
-0.0975
-0.0925
-0.0925
-0.08875
-0.07625
-0.06
-0.055
-0.06125
-0.07125
-0.085
-0.0925
-0.0975
-0.0825
-0.06875
-0.0575
-0.05625
-0.06125
-0.06625
-0.075
-0.09125
-0.1025
-0.10625
-0.10625
-0.10375
-0.10125
-0.09875
-0.09375
-0.085
-0.0775
-0.07375
-0.07125
-0.0675
-0.06375
-0.065
-0.07375
-0.07875
-0.07125
-0.05875
-0.0525
-0.05875
-0.08125
-0.105
-0.11875
-0.115
-0.1025
-0.08875
-0.08
-0.07375
-0.06875
-0.065
-0.055
-0.06
-0.06875
-0.07375
-0.0725
-0.0675
-0.07
-0.07375
-0.07875
-0.07875
-0.075
-0.07125
-0.0725
-0.08375
-0.0925
-0.09125
-0.08375
-0.0725
-0.065
-0.05875
-0.0525
-0.04625
-0.04625
-0.04875
-0.055
-0.0625
-0.06625
-0.0625
-0.055
-0.05125
-0.05375
-0.0625
-0.07125
-0.0775
-0.07875
-0.07375
-0.06875
-0.07375
-0.0775
-0.08
-0.08375
-0.08125
-0.06875
-0.04625
-0.02625
-0.01875
-0.025
-0.04
-0.05875
-0.075
-0.0775
-0.0775
-0.07125
-0.0575
-0.05
-0.04875
-0.055
-0.05375
-0.04125
-0.02625
-0.01875
-0.02125
-0.035
-0.05875
-0.08
-0.08375
-0.06875
-0.0475
-0.035
-0.03
-0.035
-0.04125
-0.05
-0.05625
-0.06125
-0.06875
-0.07375
-0.07125
-0.0675
-0.05875
-0.0475
-0.0375
-0.02625
-0.01375
-0.00375
0
-0.00375
-0.015
-0.0375
-0.0575
-0.065
-0.0525
-0.02875
-0.0125
-0.00625
-0.0025
0.005
0.0175
0.0275
0.0325
0.02
0
-0.0175
-0.02125
-0.0125
0.00125
0.02
0.0375
0.04375
0.0375
0.02625
0.0125
0
-0.0125
-0.0225
-0.0275
-0.0225
-0.04625
-0.065
-0.07
-0.06625
-0.05875
-0.05
-0.04
-0.03
-0.02625
-0.02875
-0.03625
-0.04375
-0.04875
-0.04625
-0.03875
-0.0325
-0.03375
-0.035
-0.0375
-0.04
-0.05
-0.0575
-0.06
-0.06
-0.06125
-0.07
-0.08
-0.0825
-0.08125
-0.07375
-0.0675
-0.06125
-0.05625
-0.0575
-0.055
-0.04625
-0.0325
-0.015
0.0425
0.09
0.14625
0.21875
0.3
0.3775
0.44
0.48125
0.49375
0.465
0.4475
0.44
0.4325
0.41125
0.36875
0.31
0.24125
0.1725
0.105
0.0325
-0.045
-0.1225
-0.18625
-0.23
-0.24875
-0.24625
-0.22625
-0.195
-0.15875
-0.12
-0.08875
-0.06
-0.04125
-0.03375
-0.03125
-0.02875
-0.02625
-0.0275
-0.0325
-0.04125
-0.0375
-0.02625
-0.02375
-0.03125
-0.04375
-0.06125
-0.0475
-0.0175
0.01
0.0375
0.05875
0.06875
0.0625
0.03875
0.01125
-0.0025
-0.005
0
0.00375
0.00375
0.00625
0.0125
0.01875
0.02125
0.025
0.0325
0.045
0.0625
0.08
0.09125
0.085
0.07125
0.065
0.06375
0.06
0.05125
0.0425
0.035
0.0325
0.03625
0.0475
0.06
0.07625
0.08875
0.11
0.1175
0.125
0.13625
0.1425
0.1475
0.14875
0.15625
0.16875
0.18125
0.1975
0.21625
0.225
0.20125
0.18625
0.18125
0.19
0.2025
0.21625
0.2275
0.24
0.2625
0.28625
0.30875
0.3225
0.33
0.33875
0.34375
0.345
0.33875
0.32875
0.32
0.31375
0.31125
0.32
0.33
0.3375
0.34
0.3375
0.33125
0.32375
0.31625
0.31875
0.3325
0.34875
0.3625
0.3675
0.3525
0.3425
0.33125
0.315
0.3
0.29
0.28375
0.27625
0.2675
0.26
0.25375
0.24375
0.2225
0.195
0.16375
0.13375
0.1075
0.08625
0.075
0.06625
0.05375
0.03875
0.02625
0.01875
0.015
0.00625
-0.00375
-0.0125
-0.02
-0.03125
-0.05
-0.08
-0.10625
-0.12375
-0.1275
-0.1175
-0.1
-0.08375
-0.07125
-0.07125
-0.0775
-0.09125
-0.1125
-0.12375
-0.13125
-0.13625
-0.14
-0.14375
-0.14875
-0.1475
-0.14375
-0.13875
-0.1325
-0.12625
-0.12
-0.1225
-0.1275
-0.13125
-0.1275
-0.12125
-0.1125
-0.1025
-0.1
-0.1
-0.10375
-0.11
-0.11875
-0.13125
-0.13625
-0.13625
-0.12625
-0.11625
-0.1075
-0.08625
-0.07875
-0.0825
-0.09375
-0.10875
-0.115
-0.115
-0.10875
-0.1
-0.09125
-0.08625
-0.08125
-0.08
-0.085
-0.085
-0.08375
-0.0825
-0.0925
-0.10125
-0.10375
-0.09875
-0.095
-0.09375
-0.0975
-0.1025
-0.10125
-0.0925
-0.08125
-0.07125
-0.0675
-0.07
-0.07375
-0.0725
-0.06125
-0.0525
-0.04875
-0.04625
-0.04875
-0.0775
-0.10875
-0.13375
-0.14125
-0.12875
-0.11
-0.095
-0.0925
-0.09375
-0.09375
-0.095
-0.09375
-0.07875
-0.07625
-0.08
-0.0875
-0.0875
-0.08375
-0.08
-0.07125
-0.05875
-0.05625
-0.065
-0.0825
-0.1
-0.1075
-0.1025
-0.08625
-0.0725
-0.065
-0.06375
-0.065
-0.06
-0.05625
-0.05125
-0.04625
-0.04875
-0.07125
-0.1
-0.11875
-0.11625
-0.1025
-0.0875
-0.07375
-0.06125
-0.05875
-0.065
-0.0775
-0.085
-0.085
-0.08875
-0.09125
-0.09125
-0.08625
-0.08375
-0.08375
-0.0825
-0.07875
-0.06375
-0.05625
-0.04375
-0.03625
-0.03625
-0.04375
-0.0575
-0.06625
-0.075
-0.0825
-0.0875
-0.09125
-0.0875
-0.08
-0.07
-0.065
-0.06
-0.0475
-0.0375
-0.03625
-0.04125
-0.05375
-0.07
-0.09
-0.10375
-0.1075
-0.09875
-0.0775
-0.0675
-0.05875
-0.05125
-0.04125
-0.03125
-0.025
-0.02625
-0.03625
-0.0625
-0.0675
-0.06625
-0.0625
-0.05625
-0.04875
-0.04375
-0.0425
-0.0475
-0.05
-0.04625
-0.05125
-0.0575
-0.06375
-0.06625
-0.06875
-0.07375
-0.07
-0.0625
-0.05375
-0.04875
-0.04625
-0.05
-0.055
-0.05875
-0.06125
-0.05875
-0.05
-0.04
-0.02875
-0.02
-0.015
-0.0175
-0.02
-0.02375
-0.035
-0.04375
-0.0475
-0.04875
-0.045
-0.03625
-0.0275
-0.025
-0.02375
-0.02375
-0.02875
-0.0375
-0.04625
-0.0525
-0.0525
-0.04125
-0.02375
-0.00875
0
0.005
0.005
0.00375
0.00625
0.00375
-0.00375
-0.01375
-0.02375
-0.03
-0.02875
-0.02125
-0.01125
-0.00625
0
0.0075
0.01625
0.01875
0.02375
0.03375
0.04625
0.06
0.06625
0.06125
0.04875
0.0225
-0.00375
-0.0225
-0.02625
-0.025
-0.02375
-0.01875
-0.005
0.01375
0.0325
0.0375
0.02625
0.00625
-0.01125
-0.02375
-0.03
-0.0325
-0.04125
-0.05375
-0.07
-0.0775
-0.07375
-0.06125
-0.0425
-0.03
-0.03125
-0.0375
-0.0375
-0.03125
-0.0225
-0.0075
0.00375
0.00875
-0.02375
-0.05
-0.07625
-0.095
-0.10625
-0.09
-0.07375
-0.0625
-0.0575
-0.0575
-0.06
-0.05625
-0.04125
-0.01625
0.0075
0.03625
0.065
0.1
0.1325
0.17125
0.2225
0.2875
0.35125
0.41
0.44875
0.46625
0.46625
0.455
0.44125
0.43125
0.41875
0.38625
0.32125
0.23875
0.155
0.0775
0.00875
-0.055
-0.11125
-0.19125
-0.20625
-0.2025
-0.18375
-0.15625
-0.1225
-0.09625
-0.07375
-0.045
-0.0425
-0.05125
-0.05125
-0.04125
-0.03
-0.0225
-0.02375
-0.02875
-0.0375
-0.04375
-0.045
-0.0375
-0.02625
-0.01875
-0.01625
-0.01625
-0.01625
-0.015
-0.015
-0.01
0
0.015
0.03
0.04125
0.04
0.0325
0.02
0.01375
0.015
0.02625
0.03875
0.0425
0.03875
0.03125
0.025
0.03
0.04
0.05375
0.06375
0.0725
0.08125
0.08625
0.08375
0.07125
0.05875
0.0575
0.0925
0.11375
0.12375
0.12125
0.11125
0.09125
0.0875
0.09
0.095
0.105
0.11375
0.12125
0.1275
0.135
0.145
0.15
0.1575
0.1725
0.1875
0.19375
0.19125
0.18875
0.19375
0.20875
0.2225
0.22875
0.225
0.225
0.23125
0.2425
0.25375
0.27125
0.29
0.30625
0.32125
0.33125
0.31875
0.30875
0.30375
0.30625
0.31625
0.3275
0.33625
0.34125
0.34625
0.36
0.36625
0.36625
0.36125
0.34875
0.33375
0.3225
0.31875
0.32125
0.33
0.33875
0.34125
0.33125
0.30875
0.28875
0.2725
0.26125
0.25875
0.25625
0.2475
0.22375
0.195
0.175
0.1675
0.16375
0.15875
0.15
0.1375
0.1225
0.10875
0.09375
0.0375
0.005
-0.01375
-0.02
-0.0225
-0.0375
-0.045
-0.04375
-0.0375
-0.03875
-0.04875
-0.0625
-0.07875
-0.1
-0.11625
-0.125
-0.12625
-0.12
-0.1125
-0.10375
-0.09875
-0.09875
-0.10625
-0.11625
-0.1325
-0.155
-0.16625
-0.165
-0.15125
-0.13375
-0.11625
-0.105
-0.1
-0.10125
-0.11
-0.1225
-0.13375
-0.13
-0.12625
-0.12375
-0.1225
-0.12
-0.1075
-0.085
-0.0725
-0.075
-0.09375
-0.0975
-0.095
-0.095
-0.10625
-0.1325
-0.1375
-0.13
-0.115
-0.09875
-0.09
-0.085
-0.08375
-0.08625
-0.09375
-0.10375
-0.11125
-0.115
-0.10875
-0.095
-0.08125
-0.075
-0.07875
-0.0875
-0.0925
-0.09
-0.08125
-0.07625
-0.0725
-0.07125
-0.07875
-0.09
-0.0975
-0.0975
-0.0925
-0.08625
-0.08125
-0.07875
-0.075
-0.07625
-0.0825
-0.08875
-0.09125
-0.09125
-0.08625
-0.07875
-0.08375
-0.09125
-0.1
-0.10125
-0.09375
-0.07625
-0.05875
-0.04875
-0.04875
-0.05875
-0.0775
-0.09375
-0.10625
-0.11
-0.09625
-0.09
-0.085
-0.0775
-0.06875
-0.08125
-0.095
-0.1025
-0.1
-0.09
-0.07875
-0.07625
-0.075
-0.06875
-0.06375
-0.0625
-0.0675
-0.0775
-0.09125
-0.1025
-0.10875
-0.11
-0.10875
-0.1025
-0.08875
-0.075
-0.06625
-0.065
-0.07
-0.07375
-0.0825
-0.085
-0.08
-0.0725
-0.065
-0.05375
-0.0425
-0.0375
-0.0425
-0.05875
-0.07875
-0.095
-0.0975
-0.08875
-0.08125
-0.07375
-0.07
-0.06
-0.055
-0.06125
-0.07625
-0.08125
-0.08
-0.07375
-0.0675
-0.0675
-0.07
-0.07125
-0.07125
-0.06625
-0.06375
-0.07125
-0.075
-0.065
-0.0575
-0.06125
-0.07
-0.07375
-0.065
-0.05625
-0.05625
-0.06375
-0.07375
-0.0675
-0.05625
-0.04375
-0.03375
-0.0275
-0.03
-0.0375
-0.04625
-0.0525
-0.05625
-0.06375
-0.0725
-0.07375
-0.0625
-0.05125
-0.03875
-0.04125
-0.0475
-0.04875
-0.04875
-0.04875
-0.04625
-0.03375
-0.02125
-0.0175
-0.02375
-0.02625
-0.0225
-0.01375
-0.01
-0.0125
-0.02
-0.025
-0.02125
-0.015
-0.01125
-0.015
-0.01625
-0.01375
-0.00875
-0.005
-0.005
-0.005
0
0.015
0.02375
0.02375
0.02
0.01375
0.01
0.00375
-0.0025
-0.00875
-0.005
0.0025
0.00375
0
-0.00125
0
0.0025
0.00625
0.00875
0
-0.01875
-0.0375
-0.055
-0.07
-0.07875
-0.07875
-0.07875
-0.065
-0.05625
-0.05125
-0.0525
-0.06
-0.065
-0.06125
-0.05125
-0.04
-0.03625
-0.0425
-0.07375
-0.08375
-0.08375
-0.0875
-0.08875
-0.08625
-0.0775
-0.06875
-0.0625
-0.055
-0.055
-0.06125
-0.065
-0.06625
-0.06625
-0.06125
-0.05
-0.03
0
0.0425
0.10125
0.15625
0.2075
0.255
0.29875
0.3475
0.395
0.43375
0.44625
0.43375
0.4075
0.38625
0.37625
0.34875
0.3
0.23375
0.165
0.0975
0.02375
-0.05
-0.12
-0.17625
-0.2175
-0.24125
-0.2425
-0.22125
-0.1925
-0.16625
-0.13875
-0.10375
-0.065
-0.03375
-0.01875
-0.01625
-0.0225
-0.035
-0.0525
-0.0675
-0.07625
-0.07625
-0.07
-0.06375
-0.05
-0.035
-0.02
-0.0075
-0.0075
-0.01125
-0.01375
-0.01
0
0.01625
0.01625
0.015
0.02
0.02625
0.0325
0.0375
0.03375
0.02375
0.01875
0.01375
0.00625
0.0025
0.00625
0.0125
0.02375
0.03125
0.04
0.05
0.05875
0.065
0.07
0.07
0.065
0.0575
0.04875
0.0425
0.045
0.05125
0.05875
0.06375
0.07125
0.085
0.1
0.115
0.12875
0.14125
0.155
0.16125
0.15625
0.15125
0.14625
0.1475
0.15125
0.16375
0.19625
0.2025
0.20625
0.20375
0.20375
0.20625
0.20625
0.21
0.22375
0.2475
0.2725
0.2825
0.2825
0.27875
0.2775
0.28125
0.28375
0.28625
0.2875
0.295
0.315
0.33625
0.35125
0.35625
0.35875
0.3575
0.35625
0.3575
0.36125
0.3625
0.36125
0.36
0.3625
0.36
0.355
0.34875
0.34125
0.31375
0.30125
0.30125
0.30125
0.295
0.28
0.2625
0.24125
0.20875
0.2
0.19125
0.175
0.1575
0.1325
0.125
0.11
0.09
0.0625
0.03625
0.01125
-0.0075
-0.025
-0.04
-0.04625
-0.04125
-0.035
-0.0375
-0.0475
-0.06
-0.07
-0.07875
-0.08125
-0.08125
-0.08125
-0.08375
-0.0925
-0.105
-0.12
-0.12875
-0.13
-0.13
-0.12625
-0.1275
-0.12375
-0.1175
-0.11375
-0.11625
-0.12625
-0.1325
-0.13625
-0.14
-0.14125
-0.1425
-0.1375
-0.13
-0.1125
-0.09875
-0.085
-0.07625
-0.0775
-0.08875
-0.09875
-0.11
-0.13125
-0.135
-0.13375
-0.13125
-0.13375
-0.13125
-0.12
-0.1025
-0.0825
-0.0675
-0.0625
-0.06875
-0.08625
-0.11125
-0.1325
-0.14125
-0.13375
-0.12
-0.11125
-0.10875
-0.10875
-0.10375
-0.09375
-0.07875
-0.07125
-0.06875
-0.07375
-0.07875
-0.08
-0.08
-0.07625
-0.07375
-0.07
-0.0625
-0.07125
-0.075
-0.07
-0.05875
-0.055
-0.06125
-0.06625
-0.065
-0.0725
-0.085
-0.0925
-0.09
-0.08375
-0.0775
-0.075
-0.0775
-0.08
-0.08125
-0.0825
-0.085
-0.0925
-0.10125
-0.105
-0.095
-0.08375
-0.08
-0.07875
-0.07625
-0.0775
-0.07375
-0.06625
-0.0575
-0.0525
-0.05625
-0.07
-0.0875
-0.09875
-0.10125
-0.09
-0.08
-0.07625
-0.08125
-0.08875
-0.09125
-0.09
-0.09375
-0.09125
-0.085
-0.07625
-0.0675
-0.065
-0.075
-0.08
-0.07875
-0.07875
-0.0825
-0.0925
-0.09375
-0.09625
-0.09125
-0.07875
-0.06375
-0.04875
-0.035
-0.02375
-0.015
-0.01625
-0.02625
-0.0475
-0.06625
-0.07625
-0.07875
-0.07875
-0.07875
-0.0825
-0.0875
-0.08875
-0.085
-0.06875
-0.05375
-0.05
-0.05625
-0.065
-0.06625
-0.06125
-0.04875
-0.0425
-0.04
-0.0525
-0.07375
-0.09375
-0.10375
-0.09375
-0.0575
-0.04875
-0.05
-0.055
-0.055
-0.04375
-0.0475
-0.055
-0.055
-0.0525
-0.055
-0.06125
-0.06375
-0.05375
-0.03375
-0.0175
-0.01125
-0.02375
-0.0425
-0.055
-0.06
-0.0575
-0.055
-0.055
-0.055
-0.05625
-0.045
-0.03
-0.0125
-0.00125
0
-0.00625
-0.01875
-0.02375
-0.02
-0.0125
-0.00875
-0.00375
0
0.0025
-0.00125
-0.01375
-0.02625
-0.02875
-0.01625
0
0.01875
0.02125
0.01875
0.015
0.0175
0.02
0.02125
0.02125
0.01875
0.01
-0.00625
-0.00875
-0.0075
-0.00875
-0.015
-0.02625
-0.04125
-0.05625
-0.07
-0.06875
-0.0575
-0.0475
-0.035
-0.02625
-0.02875
-0.0425
-0.06
-0.07125
-0.07375
-0.07
-0.0625
-0.05625
-0.05625
-0.06125
-0.06625
-0.07125
-0.07875
-0.085
-0.0875
-0.0825
-0.07875
-0.0725
-0.0675
-0.06625
-0.0675
-0.06375
-0.05125
-0.03625
-0.02375
-0.01625
-0.00625
0.00875
0.09375
0.1575
0.225
0.28875
0.35125
0.40875
0.45625
0.4825
0.4875
0.47
0.46625
0.4575
0.43125
0.38
0.3075
0.225
0.14375
0.06875
0.00125
-0.06375
-0.125
-0.1725
-0.19625
-0.1975
-0.1875
-0.1775
-0.16625
-0.15
-0.1325
-0.11875
-0.105
-0.0875
-0.06875
-0.05
-0.035
-0.03125
-0.0275
-0.02625
-0.025
-0.03
-0.03
-0.02625
-0.0175
-0.02
-0.025
-0.025
-0.01625
-0.00375
0.00625
0.01
0.01125
0.01125
0.015
0.02125
0.0225
0.0225
0.0225
0.0225
0.025
0.02625
0.02625
0.0275
0.0275
0.02625
0.02125
0.02375
0.0425
0.045
0.04
0.03375
0.03375
0.0475
0.07125
0.09375
0.11875
0.125
0.12375
0.11125
0.085
0.08625
0.09125
0.1025
0.125
0.1275
0.13125
0.14125
0.155
0.1675
0.17625
0.185
0.1875
0.1875
0.1875
0.19125
0.20125
0.21
0.21375
0.21375
0.215
0.22125
0.2325
0.2525
0.27375
0.295
0.3025
0.305
0.30375
0.29875
0.3025
0.3125
0.32375
0.3275
0.32625
0.33125
0.3425
0.35125
0.355
0.35875
0.34875
0.3375
0.3325
0.33125
0.33625
0.34625
0.35
0.3475
0.33875
0.33375
0.33
0.33
0.33125
0.33
0.32
0.305
0.27875
0.24625
0.21
0.1825
0.16375
0.1475
0.1325
0.11125
0.09125
0.07375
0.065
0.06125
0.06125
0.035
0.0075
-0.02375
-0.05375
-0.0775
-0.07625
-0.06375
-0.0575
-0.06375
-0.0925
-0.0925
-0.0875
-0.0825
-0.0825
-0.08375
-0.09125
-0.10875
-0.1275
-0.12375
-0.12125
-0.12125
-0.125
-0.12875
-0.13
-0.13
-0.12125
-0.105
-0.0925
-0.09
-0.09375
-0.1
-0.1175
-0.14375
-0.16375
-0.16375
-0.15125
-0.13375
-0.10375
-0.10125
-0.095
-0.085
-0.07125
-0.055
-0.06375
-0.08
-0.1
-0.115
-0.11
-0.1025
-0.09625
-0.09875
-0.105
-0.105
-0.095
-0.0625
-0.06375
-0.0725
-0.0875
-0.12
-0.1225
-0.1125
-0.09875
-0.09125
-0.095
-0.10375
-0.11125
-0.10625
-0.08875
-0.06125
-0.0375
-0.0175
-0.00625
-0.09
-0.0975
-0.09875
-0.1025
-0.10875
-0.115
-0.11875
-0.11875
-0.115
-0.1025
-0.05625
-0.0325
-0.01875
-0.0225
-0.06
-0.0925
-0.11625
-0.12375
-0.11375
-0.11
-0.1075
-0.10125
-0.0875
-0.05
-0.04
-0.03875
-0.04875
-0.06375
-0.0775
-0.0875
-0.0975
-0.1025
-0.10125
-0.09625
-0.095
-0.09125
-0.085
-0.0525
-0.0425
-0.03625
-0.03125
-0.0325
-0.04375
-0.06
-0.07625
-0.0925
-0.10125
-0.09125
-0.085
-0.08125
-0.0775
-0.05875
-0.05375
-0.06125
-0.0725
-0.1
-0.10625
-0.10125
-0.08375
-0.06375
-0.0525
-0.05125
-0.055
-0.06375
-0.0775
-0.08875
-0.08
-0.0575
-0.0325
-0.02
-0.02625
-0.04125
-0.055
-0.065
-0.06625
-0.05375
-0.045
-0.03625
-0.03125
-0.03625
-0.03875
-0.04125
-0.045
-0.0525
-0.06625
-0.07875
-0.085
-0.085
-0.07375
-0.06875
-0.07
-0.06875
-0.07875
-0.075
-0.07125
-0.06875
-0.05125
-0.04125
-0.03
-0.015
-0.02875
-0.0325
-0.0375
-0.04375
0
0.0075
0.0125
0.01125
0
-0.0125
-0.02
-0.0225
-0.025
-0.0275
-0.025
-0.0175
-0.01125
-0.005
0.00125
0.0125
0.02375
0.025
0.01875
0.01375
0.02375
0.0425
0.05
0.04375
0.0325
0.02
0.01125
0.0075
0.0075
0.01
0.0075
-0.00375
-0.01625
-0.0425
-0.04875
-0.04625
-0.0375
-0.0275
-0.02125
-0.0225
-0.0275
-0.0375
-0.04875
-0.06125
-0.07125
-0.0725
-0.0775
-0.085
-0.095
-0.09625
-0.09125
-0.08125
-0.06875
-0.05625
-0.04375
-0.07125
-0.0875
-0.0975
-0.0975
-0.08625
-0.0675
-0.0525
-0.04375
-0.03375
-0.0175
0.05
0.09875
0.155
0.21125
0.295
0.335
0.3825
0.42375
0.45625
0.44375
0.4325
0.4225
0.40875
0.38375
0.3475
0.2975
0.23375
0.15125
0.05625
-0.03625
-0.12
-0.18375
-0.2225
-0.235
-0.2275
-0.20375
-0.17625
-0.0775
-0.07
-0.06875
-0.06625
-0.06125
-0.05
-0.0325
-0.015
-0.0025
0.005
0.005
-0.0025
-0.015
-0.02375
-0.0325
-0.0375
-0.0325
-0.01625
0
0.01125
0.0025
-0.005
-0.01
-0.01125
-0.00875
0
0.0125
0.0275
0.04375
0.07
0.075
0.0775
0.075
0.0675
0.05125
0.03875
0.0375
0.06125
0.06625
0.0725
0.07625
0.075
0.0725
0.07375
0.07875
0.08375
0.08375
0.08
0.0825
0.095
0.11125
0.1225
0.145
0.15625
0.16
0.1625
0.16125
0.1675
0.17875
0.19375
0.2075
0.21875
0.22625
0.2325
0.2375
0.24125
0.2425
0.2425
0.25
0.26125
0.27
0.28125
0.3
0.31875
0.325
0.32125
0.3175
0.325
0.33
0.3325
0.33
0.3275
0.335
0.35
0.3625
0.37
0.37875
0.375
0.36625
0.3525
0.3425
0.33375
0.32375
0.31125
0.30375
0.33375
0.34625
0.35125
0.34375
0.3175
0.2525
0.23125
0.2125
0.19
0.16375
0.14125
0.12625
0.115
0.1025
0.09
0.0775
0.0675
0.055
0.0425
-0.00875
-0.01875
-0.0275
-0.04
-0.0525
-0.07
-0.0875
-0.09875
-0.105
-0.10125
-0.0975
-0.09625
-0.09125
-0.09625
-0.10875
-0.12125
-0.12875
-0.1075
-0.12
-0.1275
-0.1275
-0.1225
-0.115
-0.1075
-0.10625
-0.115
-0.13
-0.14125
-0.15
-0.15375
-0.15125
-0.1475
-0.14625
-0.14375
-0.13875
-0.12875
-0.07125
-0.05875
-0.05
-0.05125
-0.0775
-0.095
-0.11
-0.11625
-0.11875
-0.11875
-0.11625
-0.11625
-0.11125
-0.0725
-0.05125
-0.04
-0.04625
-0.115
-0.1325
-0.1375
-0.13625
-0.135
-0.135
-0.12875
-0.11625
-0.10125
-0.0875
-0.07625
-0.0725
-0.07
-0.065
-0.06125
-0.06375
-0.07125
-0.08125
-0.0875
-0.08
-0.07625
-0.07625
-0.07625
-0.0625
-0.055
-0.05375
-0.05875
-0.08
-0.1
-0.11125
-0.115
-0.11125
-0.10375
-0.0975
-0.09125
-0.08625
-0.0825
-0.08125
-0.08375
-0.085
-0.0875
-0.085
-0.0825
-0.085
-0.0925
-0.10125
-0.10125
-0.09
-0.07375
-0.06375
-0.06625
-0.08125
-0.10125
-0.1125
-0.1075
-0.08375
-0.05875
-0.0475
-0.04625
-0.0525
-0.05625
-0.05125
-0.03875
-0.02625
-0.0225
-0.03375
-0.0625
-0.1
-0.1325
-0.14375
-0.13375
-0.11875
-0.085
-0.07625
-0.075
-0.07625
-0.07875
-0.075
-0.075
-0.075
-0.08
-0.08625
-0.08875
-0.08875
-0.08375
-0.08125
-0.07625
-0.07125
-0.07125
-0.07
-0.06625
-0.055
-0.045
-0.03625
-0.0375
-0.0475
-0.0575
-0.0575
-0.05
-0.04375
-0.04875
-0.06
-0.065
-0.05625
-0.05875
-0.0825
-0.10375
-0.11
-0.10375
-0.095
-0.08375
-0.07
-0.0575
-0.05125
-0.05375
-0.06375
-0.065
-0.06375
-0.05625
-0.04875
-0.04875
-0.0575
-0.07
-0.08
-0.07875
-0.0675
-0.05625
-0.045
-0.04375
-0.04875
-0.05375
-0.05625
-0.05
-0.0375
-0.02625
-0.0325
-0.045
-0.05125
-0.055
-0.05875
-0.055
-0.0475
-0.04
-0.0425
-0.04625
-0.0525
-0.0575
-0.055
-0.05
-0.04125
-0.03375
-0.03
-0.03875
-0.04
-0.035
-0.02625
-0.025
-0.03375
-0.03625
-0.0325
-0.02125
-0.0125
0.00625
0.01125
0.03
0.05125
0.06
0.05
0.02625
0.0025
-0.01125
-0.015
-0.01375
-0.00875
-0.00875
-0.0125
-0.015
-0.015
-0.02375
-0.04125
-0.0575
-0.0675
-0.0725
-0.07875
-0.08375
-0.085
-0.07875
-0.06625
-0.05875
-0.05
-0.02625
-0.0275
-0.03875
-0.05375
-0.0675
-0.075
-0.0775
-0.07625
-0.0775
-0.06875
-0.055
-0.0425
-0.035
-0.0375
-0.0475
-0.06375
-0.0775
-0.0925
-0.105
-0.11875
-0.13
-0.13
-0.1175
-0.0925
-0.06125
-0.0275
0.0075
0.04625
0.085
0.1275
0.17375
0.28125
0.335
0.39375
0.4475
0.4875
0.50125
0.4925
0.48875
0.4775
0.4425
0.38125
0.29625
0.19875
0.1025
0.015
-0.1225
-0.17375
-0.2075
-0.22375
-0.22
-0.19625
-0.165
-0.13
-0.1
-0.07875
-0.0775
-0.08625
-0.0925
-0.09125
-0.0875
-0.0825
-0.07875
-0.0725
-0.06375
-0.055
-0.04125
-0.02
0
0.01375
0.0225
0.0225
0.00625
-0.0125
-0.04125
-0.045
-0.04375
-0.04125
-0.03625
-0.0325
-0.0275
-0.02375
-0.015
-0.00125
0.0375
0.0525
0.05875
0.05125
0.0325
-0.01625
-0.025
-0.015
0.00125
0.01375
0.035
0.04375
0.0525
0.06
0.06875
0.085
0.1025
0.11125
0.11
0.1075
0.10125
0.10125
0.09875
0.09875
0.0925
0.085
0.07875
0.08
0.08375
0.0925
0.10625
0.11625
0.12125
0.12625
0.13875
0.15
0.15875
0.1625
0.175
0.19125
0.21375
0.2325
0.24125
0.23875
0.23375
0.235
0.24
0.24625
0.27625
0.29875
0.31125
0.3025
0.285
0.28
0.29125
0.30875
0.325
0.335
0.3375
0.34
0.345
0.345
0.3425
0.33875
0.34375
0.35375
0.36125
0.3575
0.34875
0.33375
0.325
0.325
0.335
0.3425
0.33625
0.32
0.3
0.28625
0.27875
0.275
0.2725
0.26875
0.24875
0.23125
0.205
0.1725
0.13625
0.09875
0.09875
0.09875
0.08875
0.04125
0.0225
0.0125
0.005
-0.00625
-0.0225
-0.04
-0.06
-0.07625
-0.0825
-0.07875
-0.07
-0.06375
-0.0675
-0.07875
-0.0975
-0.1175
-0.125
-0.12125
-0.11625
-0.11125
-0.11
-0.1075
-0.11
-0.11625
-0.12
-0.12375
-0.12625
-0.13
-0.135
-0.14
-0.14125
-0.14375
-0.14375
-0.14625
-0.14875
-0.1475
-0.14
-0.1325
-0.13
-0.13
-0.13
-0.1225
-0.12125
-0.12875
-0.13375
-0.12875
-0.11625
-0.10125
-0.09
-0.0875
-0.0975
-0.11
-0.12
-0.1175
-0.115
-0.1125
-0.11125
-0.1075
-0.09625
-0.08375
-0.075
-0.08625
-0.09375
-0.1025
-0.10875
-0.11
-0.10875
-0.10875
-0.11125
-0.10875
-0.09875
-0.0925
-0.09
-0.08625
-0.07625
-0.06375
-0.06375
-0.07375
-0.0925
-0.11
-0.1175
-0.115
-0.1075
-0.09
-0.07
-0.055
-0.05
-0.05625
-0.0675
-0.0725
-0.0725
-0.0725
-0.08
-0.1125
-0.12375
-0.1225
-0.11375
-0.10375
-0.09
-0.08375
-0.08
-0.08375
-0.085
-0.075
-0.0725
-0.075
-0.07375
-0.0725
-0.07125
-0.0725
-0.08125
-0.09625
-0.10875
-0.11125
-0.10875
-0.10875
-0.10875
-0.10875
-0.10375
-0.0975
-0.085
-0.07625
-0.07
-0.065
-0.06375
-0.07125
-0.08375
-0.09875
-0.10875
-0.11125
-0.10375
-0.08875
-0.075
-0.07125
-0.07125
-0.07375
-0.07375
-0.075
-0.0775
-0.085
-0.095
-0.105
-0.11125
-0.10625
-0.08875
-0.06625
-0.04875
-0.05875
-0.07
-0.075
-0.07125
-0.07375
-0.07625
-0.07375
-0.07
-0.065
-0.06375
-0.06375
-0.0675
-0.0725
-0.07875
-0.09
-0.09625
-0.0975
-0.09375
-0.09125
-0.08625
-0.0725
-0.055
-0.04375
-0.04125
-0.05
-0.065
-0.08125
-0.095
-0.10125
-0.105
-0.1
-0.075
-0.065
-0.0575
-0.0525
-0.0475
-0.04375
-0.04
-0.03875
-0.045
-0.055
-0.07
-0.06625
-0.05125
-0.0375
-0.05125
-0.0675
-0.08
-0.08375
-0.0725
-0.045
-0.0175
-0.0075
-0.0125
-0.02375
-0.03625
-0.05
-0.06375
-0.07625
-0.08375
-0.0825
-0.075
-0.06625
-0.06875
-0.0775
-0.08
-0.0725
-0.06
-0.0475
-0.0375
-0.03375
-0.04125
-0.0525
-0.065
-0.05125
-0.0325
-0.01625
-0.0125
-0.01375
-0.01625
-0.01875
-0.01625
-0.0075
0
0.00125
-0.0125
-0.025
-0.03
-0.025
-0.01375
0
0.01625
0.02125
0.01
-0.01875
-0.02375
-0.0275
-0.0275
-0.02625
-0.02625
-0.02
-0.0125
-0.0025
0.01125
0.02625
0.0325
0.035
0.03
0.02375
0.01875
0.0175
0.01875
0.02
0.02375
0.03125
0.03625
0.03625
0.0275
0.01625
0.0025
-0.0075
-0.01625
-0.0225
-0.02625
-0.02875
-0.03125
-0.03375
-0.03875
-0.04875
-0.055
-0.05625
-0.05125
-0.05
-0.05125
-0.055
-0.06125
-0.06875
-0.07375
-0.065
-0.05125
-0.04
-0.035
-0.03875
-0.04
-0.04
-0.045
-0.05375
-0.05875
-0.065
-0.07625
-0.085
-0.09125
-0.0875
-0.07125
-0.0375
0.00375
0.0425
0.0775
0.11125
0.14375
0.17625
0.2125
0.325
0.3975
0.4625
0.49875
0.5025
0.4925
0.47625
0.46
0.43375
0.39375
0.2625
0.17125
0.0875
0.02
-0.04125
-0.15875
-0.195
-0.21125
-0.21375
-0.2
-0.17875
-0.15
-0.1275
-0.105
-0.085
-0.065
-0.04875
-0.0375
-0.03
-0.02875
-0.0325
-0.0325
-0.0225
-0.01
-0.00125
0.00125
0.005
0.005
0.0025
-0.00625
-0.0175
-0.02125
-0.02
-0.0225
-0.0225
-0.01
0.01
0.02125
0.00875
0.00625
0.0175
0.02625
0.0275
0.0275
0.0225
0.015
0.0125
0.02125
0.035
0.0525
0.0675
0.07
0.06375
0.06
0.06375
0.07
0.07375
0.07
0.0625
0.055
0.05125
0.0575
0.06875
0.08375
0.105
0.12
0.125
0.1175
0.1125
0.115
0.1225
0.1375
0.15
0.1575
0.16125
0.1525
0.14625
0.15
0.16
0.17125
0.18125
0.19375
0.20625
0.21125
0.20875
0.2325
0.2575
0.2775
0.2875
0.29875
0.305
0.30375
0.29875
0.3
0.3075
0.31875
0.3275
0.33
0.325
0.31375
0.3075
0.31125
0.32125
0.33125
0.345
0.3525
0.36
0.36625
0.3725
0.37125
0.36125
0.3525
0.35
0.3325
0.32375
0.32125
0.325
0.32125
0.30375
0.2975
0.28625
0.26
0.2275
0.2025
0.19125
0.1925
0.19875
0.1975
0.18125
0.1375
0.1125
0.085
0.055
0.03
0.0075
-0.01
-0.02375
-0.03125
-0.0375
-0.04125
-0.03625
-0.025
-0.02
-0.03375
-0.06125
-0.085
-0.0925
-0.08875
-0.085
-0.08125
-0.0825
-0.08625
-0.08875
-0.095
-0.10625
-0.125
-0.14625
-0.14
-0.1275
-0.1075
-0.095
-0.0925
-0.09875
-0.10875
-0.11125
-0.1125
-0.1125
-0.12
-0.13625
-0.15
-0.155
-0.13125
-0.1125
-0.10375
-0.10125
-0.10375
-0.1075
-0.12125
-0.13875
-0.15
-0.1425
-0.12625
-0.105
-0.09
-0.08375
-0.0825
-0.08
-0.0775
-0.0775
-0.07625
-0.0725
-0.07
-0.08
-0.0975
-0.11625
-0.125
-0.1225
-0.1075
-0.09125
-0.08
-0.06375
-0.05375
-0.04875
-0.0475
-0.04875
-0.04875
-0.05375
-0.07
-0.095
-0.125
-0.1425
-0.14625
-0.13
-0.1175
-0.105
-0.095
-0.08875
-0.07375
-0.06625
-0.06125
-0.06375
-0.07
-0.0775
-0.08375
-0.08125
-0.07125
-0.06
-0.055
-0.0625
-0.07
-0.06875
-0.05875
-0.0525
-0.0575
-0.07125
-0.08625
-0.09125
-0.09375
-0.09625
-0.10125
-0.10125
-0.1025
-0.10125
-0.1
-0.08875
-0.07375
-0.06
-0.05125
-0.04625
-0.0425
-0.0475
-0.07
-0.09875
-0.11875
-0.1275
-0.1325
-0.13125
-0.12125
-0.10375
-0.0875
-0.07125
-0.05625
-0.04625
-0.0475
-0.05375
-0.06125
-0.06125
-0.06
-0.06125
-0.05875
-0.06125
-0.06625
-0.0725
-0.0775
-0.07375
-0.07625
-0.08125
-0.08625
-0.0875
-0.08
-0.07125
-0.065
-0.0625
-0.0625
-0.06125
-0.05875
-0.065
-0.075
-0.0825
-0.075
-0.05625
-0.03625
-0.03
-0.04125
-0.06125
-0.0775
-0.085
-0.0875
-0.09125
-0.0925
-0.09375
-0.08625
-0.0725
-0.05875
-0.05125
-0.0525
-0.05375
-0.05125
-0.04875
-0.04875
-0.06625
-0.075
-0.075
-0.0675
-0.05625
-0.05
-0.04375
-0.03625
-0.02875
-0.0275
-0.03375
-0.05
-0.05625
-0.06125
-0.05875
-0.05125
-0.0425
-0.055
-0.07125
-0.07625
-0.06
-0.04625
-0.0375
-0.03875
-0.04375
-0.05
-0.05625
-0.06375
-0.06875
-0.06375
-0.0525
-0.04
-0.0375
-0.0425
-0.05125
-0.05125
-0.04875
-0.04375
-0.03875
-0.0375
-0.03375
-0.03125
-0.0325
-0.03375
-0.025
-0.01
0
0
-0.01
-0.01875
-0.0175
-0.015
-0.01
0
0.0175
0.01875
0.00625
0.00125
0.0025
0.0025
0.00375
0.005
0.0025
-0.00125
-0.005
-0.00875
-0.00875
-0.00375
0.00375
0.01125
0.015
0.0125
0.005
-0.0075
-0.01875
-0.0225
-0.01375
0.00125
0.01
0.0075
-0.0025
-0.01625
-0.02625
-0.03625
-0.0525
-0.05875
-0.05875
-0.05125
-0.03625
-0.025
-0.02
-0.01875
-0.02125
-0.0275
-0.0325
-0.035
-0.03875
-0.04375
-0.06625
-0.07125
-0.07125
-0.06625
-0.05625
-0.02625
-0.0225
-0.0375
-0.05625
-0.065
-0.07375
-0.0825
-0.09625
-0.1025
-0.10375
-0.09
-0.06
-0.01625
0.02875
0.08
0.1325
0.17875
0.21875
0.2525
0.28875
0.33375
0.38
0.40875
0.41375
0.39875
0.37625
0.3575
0.34875
0.3325
0.25375
0.185
0.1025
0.02125
-0.05
-0.11
-0.15125
-0.18625
-0.1825
-0.1725
-0.1575
-0.12125
-0.10625
-0.0975
-0.09
-0.08375
-0.0825
-0.0875
-0.085
-0.0725
-0.05625
-0.0425
-0.03625
-0.035
-0.035
-0.02625
-0.00375
0.02
0.035
0.0275
0.00375
-0.0175
-0.03125
-0.02375
0.00625
0.0075
-0.00125
-0.00625
0
0.01625
0.0325
0.0425
0.03875
0.02875
0.015
0.00375
0.0025
0.015
0.035
0.05375
0.06875
0.08
0.0825
0.07625
0.06875
0.06125
0.055
0.05375
0.055
0.05875
0.0675
0.08
0.0875
0.08875
0.085
0.08875
0.0925
0.09375
0.0925
0.095
0.1075
0.1225
0.13625
0.1425
0.13625
0.12875
0.1275
0.13125
0.1375
0.145
0.17
0.18
0.19
0.19875
0.2125
0.22875
0.24
0.24625
0.24625
0.2425
0.24375
0.25
0.2575
0.26625
0.27625
0.2875
0.2925
0.29375
0.28875
0.28875
0.2975
0.315
0.325
0.32625
0.325
0.3275
0.33375
0.33875
0.3375
0.33625
0.34
0.345
0.35125
0.36
0.3575
0.34875
0.335
0.3275
0.3225
0.31625
0.29375
0.2775
0.2575
0.23625
0.2175
0.19875
0.2025
0.20625
0.20625
0.1825
0.17125
0.1575
0.1375
0.1075
0.07875
0.05
0.0075
-0.0125
-0.035
-0.05
-0.055
-0.055
-0.055
-0.0525
-0.04875
-0.05
-0.05875
-0.06875
-0.07875
-0.09
-0.10125
-0.11625
-0.12875
-0.14125
-0.14875
-0.14625
-0.13125
-0.11375
-0.1
-0.0925
-0.09625
-0.1275
-0.13625
-0.135
-0.13125
-0.12625
-0.12375
-0.12125
-0.12125
-0.12625
-0.13
-0.12875
-0.11875
-0.11625
-0.1175
-0.12375
-0.13625
-0.1475
-0.1425
-0.1375
-0.1375
-0.14125
-0.14625
-0.145
-0.13375
-0.1175
-0.10625
-0.105
-0.11125
-0.10875
-0.09875
-0.09
-0.09125
-0.0975
-0.105
-0.11
-0.11125
-0.0975
-0.0775
-0.05
-0.02625
-0.0125
-0.01625
-0.03375
-0.05625
-0.075
-0.09
-0.1
-0.1075
-0.1125
-0.11625
-0.10875
-0.085
-0.07625
-0.07125
-0.07375
-0.08
-0.085
-0.08625
-0.09125
-0.0975
-0.10375
-0.10375
-0.0975
-0.09125
-0.08125
-0.07375
-0.0725
-0.08375
-0.0925
-0.09375
-0.08625
-0.07875
-0.0775
-0.08
-0.08375
-0.08375
-0.08
-0.085
-0.09125
-0.09625
-0.1
-0.10125
-0.075
-0.0625
-0.06125
-0.07
-0.08125
-0.0975
-0.11125
-0.12125
-0.12125
-0.11375
-0.10125
-0.09125
-0.08375
-0.07625
-0.065
-0.05625
-0.05375
-0.0575
-0.06625
-0.07125
-0.06625
-0.05125
-0.045
-0.05625
-0.0725
-0.0825
-0.08375
-0.07875
-0.0775
-0.07625
-0.0775
-0.0775
-0.0825
-0.09375
-0.1025
-0.1075
-0.11
-0.11125
-0.10875
-0.10625
-0.105
-0.07875
-0.07
-0.07
-0.0725
-0.07375
-0.08375
-0.08
-0.06875
-0.055
-0.045
-0.045
-0.04625
-0.045
-0.03875
-0.02875
-0.0275
-0.04125
-0.06
-0.075
-0.08125
-0.07375
-0.05625
-0.04125
-0.0375
-0.04375
-0.05375
-0.065
-0.0725
-0.0775
-0.08
-0.08
-0.08125
-0.08125
-0.08
-0.0775
-0.08
-0.07625
-0.06625
-0.06125
-0.06375
-0.06125
-0.05625
-0.0475
-0.045
-0.0425
-0.04375
-0.04875
-0.05625
-0.06375
-0.06625
-0.05125
-0.0325
-0.0075
0.0125
0.0225
0.0225
0.01625
0.00625
-0.01
-0.02625
-0.0575
-0.0625
-0.05625
-0.04375
-0.03
-0.02125
-0.015
-0.0075
0.00125
0.0125
0.015
0.005
-0.00375
-0.01375
-0.01875
-0.01375
0.0025
0.0275
0.04375
0.04875
0.0425
0.025
0.0025
-0.01375
-0.02
-0.01625
-0.01
-0.00375
0.00375
0.0075
-0.00875
-0.02375
-0.0325
-0.0325
-0.03625
-0.05
-0.07125
-0.09375
-0.10375
-0.095
-0.08125
-0.06125
-0.04
-0.02875
-0.03
-0.04
-0.05375
-0.0675
-0.08125
-0.09
-0.08875
-0.08
-0.07
-0.06875
-0.06625
-0.06625
-0.06375
-0.06
-0.05125
-0.0475
-0.05125
-0.08
-0.0925
-0.09125
-0.07625
-0.05
-0.0175
0.01375
0.045
0.075
0.11
0.15125
0.195
0.24375
0.3025
0.37125
0.47375
0.4725
0.44125
0.415
0.41375
0.415
0.39125
0.33625
0.26
0.18125
0.10875
0.04625
-0.0125
-0.0675
-0.11375
-0.15125
-0.17375
-0.18
-0.17375
-0.1625
-0.1425
-0.1175
-0.085
-0.06125
-0.05
-0.04875
-0.04875
-0.05125
-0.055
-0.06
-0.06
-0.0525
-0.03875
-0.03
-0.0275
-0.03
-0.03625
-0.0425
-0.045
-0.0425
-0.03625
-0.02875
-0.0275
-0.02625
-0.02
-0.015
-0.01125
-0.005
0
0.00375
0.00875
0.0175
0.0325
0.04625
0.05375
0.05375
0.0475
0.0375
0.02625
0.0175
0.0225
0.0375
0.05375
0.06875
0.07625
0.07875
0.0625
0.05125
0.0475
0.04875
0.055
0.065
0.075
0.0825
0.0875
0.09
0.09375
0.0975
0.1075
0.11
0.10625
0.10125
0.0975
0.09375
0.1
0.1125
0.1325
0.15375
0.1675
0.17875
0.19
0.19625
0.19625
0.2
0.21
0.21875
0.225
0.22625
0.23125
0.24125
0.255
0.26
0.265
0.27
0.28
0.29
0.3
0.305
0.305
0.30375
0.30625
0.315
0.32375
0.3275
0.325
0.32
0.31375
0.305
0.29875
0.3
0.3125
0.33
0.35125
0.36625
0.36875
0.365
0.35875
0.35125
0.34
0.32625
0.31625
0.31
0.28625
0.27
0.255
0.245
0.24
0.2375
0.2275
0.205
0.1725
0.13375
0.09875
0.0725
0.055
0.05
0.045
0.03875
0.04
0.03375
0.0175
-0.00375
-0.02625
-0.04
-0.0475
-0.055
-0.06125
-0.06375
-0.06875
-0.07375
-0.07875
-0.08
-0.0825
-0.09625
-0.10875
-0.1225
-0.12625
-0.12875
-0.12375
-0.11375
-0.11
-0.1125
-0.1175
-0.11875
-0.1225
-0.12625
-0.13625
-0.14875
-0.15375
-0.14375
-0.13375
-0.125
-0.1125
-0.1025
-0.1
-0.10625
-0.11625
-0.1275
-0.13625
-0.14
-0.1375
-0.13125
-0.12
-0.1075
-0.09875
-0.09875
-0.10125
-0.10375
-0.10375
-0.10125
-0.09625
-0.09375
-0.10375
-0.12625
-0.11625
-0.09625
-0.0775
-0.07125
-0.07125
-0.08
-0.09125
-0.09875
-0.10125
-0.0975
-0.09875
-0.10875
-0.11
-0.10875
-0.10625
-0.105
-0.09875
-0.09
-0.07875
-0.0675
-0.0675
-0.07125
-0.075
-0.07625
-0.07125
-0.06375
-0.05625
-0.05125
-0.05875
-0.075
-0.095
-0.10625
-0.10625
-0.10125
-0.09375
-0.085
-0.07375
-0.07
-0.075
-0.08125
-0.085
-0.0875
-0.095
-0.09875
-0.0975
-0.0975
-0.0975
-0.09
-0.0825
-0.07
-0.06
-0.05375
-0.04875
-0.05625
-0.07
-0.08375
-0.09375
-0.10125
-0.10125
-0.1
-0.0975
-0.08875
-0.0725
-0.06
-0.0525
-0.0525
-0.06125
-0.0775
-0.0925
-0.1025
-0.10375
-0.10125
-0.09625
-0.0925
-0.07875
-0.0675
-0.06625
-0.07875
-0.09
-0.0975
-0.09875
-0.09375
-0.0875
-0.08
-0.07625
-0.07375
-0.05375
-0.0425
-0.0325
-0.03375
-0.05125
-0.085
-0.085
-0.07375
-0.05875
-0.05125
-0.0525
-0.06
-0.0725
-0.08375
-0.09
-0.0925
-0.09
-0.08375
-0.07125
-0.06125
-0.06
-0.06625
-0.07
-0.06625
-0.05875
-0.05375
-0.0525
-0.0525
-0.05375
-0.05875
-0.06125
-0.05875
-0.0575
-0.0625
-0.07
-0.0775
-0.0775
-0.065
-0.0525
-0.04
-0.0325
-0.03125
-0.03625
-0.0475
-0.06
-0.06375
-0.045
-0.0325
-0.03
-0.03
-0.03125
-0.0375
-0.04875
-0.05625
-0.0525
-0.0525
-0.05875
-0.06625
-0.06875
-0.0675
-0.06125
-0.055
-0.05125
-0.05125
-0.05375
-0.06125
-0.05875
-0.0425
-0.02375
-0.01
-0.005
-0.0025
-0.0075
-0.01
-0.00625
-0.005
-0.0125
-0.03375
-0.03625
-0.035
-0.0325
-0.03125
-0.02625
-0.01375
0.00125
0.01375
0.025
0.02875
0.0275
0.02375
0.02125
0.025
0.03375
0.025
0.00875
-0.005
-0.0125
-0.01
-0.00625
-0.00625
-0.0075
-0.005
-0.00125
0.00125
0.00125
-0.00125
-0.00625
-0.00875
-0.01125
-0.01875
-0.02875
-0.0375
-0.03875
-0.0425
-0.05375
-0.07
-0.08125
-0.07375
-0.05375
-0.0325
-0.02125
-0.025
-0.04125
-0.0625
-0.08125
-0.0875
-0.08375
-0.07
-0.0525
-0.04375
-0.04
-0.0425
-0.04625
-0.0525
-0.0625
-0.075
-0.09
-0.12
-0.1225
-0.11375
-0.09375
-0.0625
-0.0225
0.01875
0.06
0.0975
0.1325
0.1625
0.195
0.2325
0.2775
0.32875
0.3875
0.43875
0.47375
0.4875
0.48375
0.47875
0.46875
0.45375
0.42625
0.37375
0.29875
0.21
0.11875
0.03875
-0.0275
-0.0875
-0.13375
-0.1675
-0.1925
-0.20875
-0.20875
-0.19375
-0.17
-0.11
-0.08375
-0.06625
-0.055
-0.04875
-0.0425
-0.04375
-0.04875
-0.04875
-0.0425
-0.02375
-0.00125
0.01875
0.0275
0.01125
-0.0175
-0.05125
-0.07625
-0.08625
-0.0725
-0.04125
-0.01
0.00875
0.0175
0.01625
0.0125
0.0125
0.0175
0.02375
0.0325
0.0375
0.03
0.01625
0.0075
0.03
0.05125
0.07
0.0825
0.0825
0.06875
0.045
0.025
0.02
0.035
0.05375
0.07125
0.08125
0.08375
0.08625
0.09375
0.105
0.1175
0.13125
0.1325
0.125
0.10875
0.09125
0.0775
0.0775
0.0925
0.105
0.1025
0.09625
0.1
0.1125
0.135
0.16125
0.18875
0.21375
0.22625
0.22625
0.225
0.22375
0.22875
0.24375
0.2625
0.2725
0.27
0.2625
0.25875
0.26125
0.275
0.2875
0.2975
0.30125
0.3075
0.31875
0.3275
0.3275
0.325
0.325
0.32875
0.3375
0.3475
0.3475
0.34375
0.3375
0.3375
0.34625
0.355
0.35875
0.36
0.3575
0.35
0.3325
0.31375
0.3025
0.295
0.28875
0.2825
0.27375
0.26375
0.25375
0.2425
0.23
0.215
0.1975
0.18125
0.165
0.14625
0.1225
0.1
0.08625
0.07375
0.06125
0.04875
0.03
0.015
-0.005
-0.025
-0.04375
-0.055
-0.06125
-0.06625
-0.0725
-0.085
-0.0925
-0.09375
-0.09625
-0.0925
-0.0825
-0.0725
-0.07125
-0.08125
-0.09625
-0.1075
-0.115
-0.11625
-0.12125
-0.12625
-0.13375
-0.145
-0.15
-0.14875
-0.14875
-0.14625
-0.14125
-0.14125
-0.14625
-0.145
-0.13375
-0.115
-0.10125
-0.09375
-0.0925
-0.095
-0.1025
-0.1125
-0.12375
-0.13875
-0.1475
-0.1425
-0.12875
-0.11375
-0.1
-0.095
-0.09625
-0.10625
-0.11
-0.1075
-0.10625
-0.10875
-0.10875
-0.10875
-0.11
-0.115
-0.115
-0.10875
-0.1
-0.09
-0.08
-0.06625
-0.0575
-0.08
-0.09375
-0.1025
-0.1025
-0.105
-0.105
-0.0975
-0.095
-0.0925
-0.09625
-0.09875
-0.09125
-0.0725
-0.0575
-0.04875
-0.04875
-0.0625
-0.08
-0.0925
-0.09625
-0.09625
-0.09875
-0.105
-0.10875
-0.10625
-0.105
-0.105
-0.11
-0.11625
-0.11875
-0.11
-0.09
-0.07375
-0.06375
-0.0575
-0.055
-0.06
-0.07
-0.075
-0.07625
-0.07625
-0.0825
-0.0925
-0.10125
-0.1025
-0.10375
-0.105
-0.105
-0.10125
-0.09625
-0.0925
-0.09875
-0.10625
-0.11
-0.105
-0.09
-0.0675
-0.04375
-0.03
-0.02625
-0.03875
-0.05625
-0.075
-0.09125
-0.10875
-0.12875
-0.1425
-0.145
-0.135
-0.115
-0.09
-0.06875
-0.05
-0.03625
-0.03
-0.0225
-0.015
-0.02125
-0.04125
-0.06375
-0.0775
-0.09125
-0.10375
-0.115
-0.11875
-0.11375
-0.10125
-0.08875
-0.0725
-0.05875
-0.0425
-0.02875
-0.025
-0.03125
-0.0375
-0.04125
-0.05
-0.065
-0.08875
-0.11
-0.10375
-0.095
-0.09375
-0.0925
-0.08
-0.06625
-0.0575
-0.05125
-0.03625
-0.035
-0.05
-0.07
-0.08
-0.065
-0.0575
-0.0625
-0.07625
-0.085
-0.0875
-0.0825
-0.0675
-0.0525
-0.03875
-0.03
-0.0275
-0.02875
-0.0375
-0.05125
-0.06375
-0.0725
-0.075
-0.07
-0.07
-0.06875
-0.06375
-0.05875
-0.0525
-0.045
-0.0375
-0.0375
-0.04875
-0.0575
-0.06625
-0.07625
-0.08
-0.0675
-0.0425
-0.02
-0.005
0.00375
-0.0025
-0.01625
-0.02875
-0.03375
-0.015
-0.0025
0.00375
-0.00125
-0.01
-0.02
-0.025
-0.01
-0.00125
0
-0.0075
-0.0125
-0.00875
0.00125
0.01375
0.02125
0.02625
0.02625
0.02125
0.01625
0.01375
0.015
0.01625
0.0125
0.0075
0.0025
-0.00125
-0.0125
-0.0325
-0.0475
-0.0475
-0.04
-0.03875
-0.04625
-0.0675
-0.07125
-0.0675
-0.05875
-0.06125
-0.06375
-0.06
-0.055
-0.05625
-0.055
-0.05
-0.04625
-0.04875
-0.055
-0.065
-0.07375
-0.075
-0.0675
-0.06
-0.05125
-0.04625
-0.0475
-0.055
-0.0625
-0.07125
-0.085
-0.09625
-0.10625
-0.1075
-0.09875
-0.07875
-0.0425
0.0025
0.0425
0.06875
0.095
0.13125
0.175
0.22
0.26875
0.32
0.37375
0.42125
0.44875
0.45125
0.43875
0.43375
0.4425
0.4525
0.43875
0.31
0.215
0.12875
0.05625
-0.00125
-0.055
-0.10375
-0.14875
-0.1875
-0.2125
-0.2175
-0.165
-0.13375
-0.105
-0.08125
-0.06375
-0.05625
-0.0525
-0.05125
-0.05875
-0.06625
-0.0675
-0.05875
-0.045
-0.03375
-0.03
-0.0325
-0.0375
-0.04125
-0.035
-0.02375
-0.0275
-0.04375
-0.05625
