11:17:36.211 0.35
11:17:36.255 0.34
11:17:36.320 0.32
11:17:36.320 0.31
11:17:36.320 0.3
11:17:36.421 0.29
11:17:36.421 0.28
11:17:36.421 0.27
11:17:36.421 0.26
11:17:36.421 0.25
11:17:36.421 0.24
11:17:36.486 0.23
11:17:36.486 0.22
11:17:36.486 0.21
11:17:36.486 0.2
11:17:36.541 0.18
11:17:36.541 0.17
11:17:36.541 0.17
11:17:36.582 0.18
11:17:36.582 0.22
11:17:36.600 0.29
11:17:36.600 0.38
11:17:36.621 0.47
11:17:36.650 0.55
11:17:36.681 0.59
11:17:36.681 0.6
11:17:36.718 0.6
11:17:36.718 0.59
11:17:36.718 0.57
11:17:36.779 0.56
11:17:36.779 0.55
11:17:36.779 0.55
11:17:36.827 0.55
11:17:36.827 0.55
11:17:36.827 0.55
11:17:36.827 0.55
11:17:36.865 0.53
11:17:36.865 0.52
11:17:36.882 0.52
11:17:36.882 0.52
11:17:36.895 0.52
11:17:36.907 0.52
11:17:36.920 0.51
11:17:36.941 0.51
11:17:36.952 0.5
11:17:36.964 0.48
11:17:36.978 0.47
11:17:36.991 0.46
11:17:37.002 0.45
11:17:37.020 0.43
11:17:37.088 0.42
11:17:37.088 0.4
11:17:37.088 0.39
11:17:37.088 0.38
11:17:37.124 0.37
11:17:37.124 0.36
11:17:37.161 0.35
11:17:37.237 0.34
11:17:37.237 0.33
11:17:37.237 0.32
11:17:37.237 0.31
11:17:37.499 0.3
11:17:37.499 0.29
11:17:37.499 0.28
11:17:37.499 0.27
11:17:37.499 0.26
11:17:37.554 0.26
11:17:37.554 0.24
11:17:37.554 0.23
11:17:37.554 0.22
11:17:37.554 0.21
11:17:37.554 0.2
11:17:37.554 0.19
11:17:37.554 0.18
11:17:37.554 0.17
11:17:37.554 0.16
11:17:37.554 0.15
11:17:37.554 0.14
11:17:37.554 0.14
11:17:37.611 0.15
11:17:37.611 0.18
11:17:37.611 0.23
11:17:37.611 0.31
11:17:37.611 0.4
11:17:37.611 0.46
11:17:37.638 0.5
11:17:37.651 0.52
11:17:37.761 0.52
11:17:37.761 0.5
11:17:37.761 0.49
11:17:37.761 0.47
11:17:37.761 0.46
11:17:37.761 0.46
11:17:37.820 0.45
11:17:37.820 0.45
11:17:37.820 0.44
11:17:37.820 0.43
11:17:37.853 0.42
11:17:37.853 0.41
11:17:37.872 0.41
11:17:37.872 0.41
11:17:37.897 0.41
11:17:37.926 0.41
11:17:37.926 0.4
11:17:37.949 0.39
11:17:37.949 0.38
11:17:37.975 0.36
11:17:37.975 0.35
11:17:37.999 0.34
11:17:38.019 0.32
11:17:38.019 0.31
11:17:38.031 0.3
11:17:38.051 0.28
11:17:38.071 0.27
11:17:38.089 0.26
11:17:38.108 0.25
11:17:38.127 0.24
11:17:38.127 0.23
11:17:38.157 0.22
11:17:38.157 0.21
11:17:38.224 0.2
11:17:38.224 0.19
11:17:38.224 0.18
11:17:38.224 0.17
11:17:38.243 0.16
11:17:38.254 0.15
11:17:38.278 0.14
11:17:38.299 0.12
11:17:38.366 0.11
11:17:38.379 0.1
11:17:38.379 0.09
11:17:38.379 0.08
11:17:38.379 0.07
11:17:38.470 0.05
11:17:38.470 0.04
11:17:38.489 0.06
11:17:38.489 0.09
11:17:38.511 0.16
11:17:38.533 0.24
11:17:38.533 0.32
11:17:38.549 0.38
11:17:38.560 0.41
11:17:38.579 0.42
11:17:38.613 0.42
11:17:38.613 0.4
11:17:38.650 0.39
11:17:38.668 0.38
11:17:38.668 0.37
11:17:38.690 0.37
11:17:38.704 0.37
11:17:38.729 0.36
11:17:38.763 0.35
11:17:38.786 0.35
11:17:38.808 0.34
11:17:38.818 0.34
11:17:38.884 0.34
11:17:38.884 0.34
11:17:38.884 0.34
11:17:38.884 0.33
11:17:38.908 0.32
11:17:38.908 0.31
11:17:38.935 0.28
11:17:38.970 0.26
11:17:38.998 0.23
11:17:39.057 0.22
11:17:39.057 0.21
11:17:39.057 0.2
11:17:39.057 0.19
11:17:39.100 0.17
11:17:39.117 0.15
11:17:39.184 0.15
11:17:39.184 0.14
11:17:39.184 0.13
11:17:39.202 0.12
11:17:39.212 0.11
11:17:39.225 0.1
11:17:39.240 0.1
11:17:39.264 0.09
11:17:39.284 0.08
11:17:39.284 0.06
11:17:39.311 0.05
11:17:39.325 0.04
11:17:39.342 0.04
11:17:39.357 0.03
11:17:39.376 0.02
11:17:39.394 0.01
11:17:39.437 0.0
11:17:39.454 0.04
11:17:39.454 0.03
11:17:39.472 0.03
11:17:39.500 0.05
11:17:39.561 0.09
11:17:39.561 0.16
11:17:39.578 0.25
11:17:39.586 0.32
11:17:39.607 0.38
11:17:39.624 0.41
11:17:39.635 0.42
11:17:39.702 0.41
11:17:39.702 0.4
11:17:39.726 0.37
11:17:39.767 0.36
11:17:39.829 0.36
11:17:39.829 0.35
11:17:39.847 0.34
11:17:39.847 0.34
11:17:39.873 0.34
11:17:39.960 0.34
11:17:39.974 0.32
11:17:39.989 0.31
11:17:40.006 0.3
11:17:40.022 0.29
11:17:40.038 0.27
11:17:40.054 0.26
11:17:40.054 0.25
11:17:40.078 0.24
11:17:40.092 0.23
11:17:40.107 0.22
11:17:40.124 0.21
11:17:40.144 0.19
11:17:40.163 0.18
11:17:40.192 0.17
11:17:40.208 0.16
11:17:40.278 0.15
11:17:40.278 0.15
11:17:40.278 0.14
11:17:40.278 0.14
11:17:40.278 0.13
11:17:40.301 0.12
11:17:40.322 0.11
11:17:40.336 0.1
11:17:40.342 0.09
11:17:40.348 0.08
11:17:40.408 0.07
11:17:40.408 0.06
11:17:40.408 0.05
11:17:40.434 0.04
11:17:40.449 0.03
11:17:40.513 0.02
11:17:40.513 0.03
11:17:40.552 0.07
11:17:40.552 0.13
11:17:40.578 0.22
11:17:40.596 0.31
11:17:40.611 0.39
11:17:40.624 0.44
11:17:40.636 0.46
11:17:40.650 0.46
11:17:40.660 0.45
11:17:40.685 0.44
11:17:40.733 0.42
11:17:40.733 0.41
11:17:40.758 0.4
11:17:40.772 0.4
11:17:40.798 0.4
11:17:40.816 0.4
11:17:40.830 0.39
11:17:40.845 0.39
11:17:40.868 0.39
11:17:40.879 0.39
11:17:40.890 0.4
11:17:40.915 0.4
11:17:40.930 0.4
11:17:40.945 0.4
11:17:40.960 0.4
11:17:40.975 0.39
11:17:41.001 0.37
11:17:41.015 0.35
11:17:41.054 0.33
11:17:41.071 0.32
11:17:41.071 0.31
11:17:41.094 0.29
11:17:41.108 0.28
11:17:41.108 0.27
11:17:41.133 0.26
11:17:41.141 0.25
11:17:41.202 0.24
11:17:41.202 0.24
11:17:41.202 0.23
11:17:41.224 0.22
11:17:41.237 0.22
11:17:41.245 0.21
11:17:41.266 0.2
11:17:41.280 0.19
11:17:41.297 0.19
11:17:41.297 0.18
11:17:41.319 0.17
11:17:41.383 0.16
11:17:41.383 0.15
11:17:41.383 0.14
11:17:41.383 0.13
11:17:41.402 0.11
11:17:41.402 0.11
11:17:41.426 0.1
11:17:41.440 0.09
11:17:41.440 0.08
11:17:41.465 0.07
11:17:41.487 0.07
11:17:41.507 0.1
11:17:41.520 0.15
11:17:41.600 0.24
11:17:41.600 0.35
11:17:41.600 0.46
11:17:41.600 0.53
11:17:41.624 0.57
11:17:41.624 0.59
11:17:41.647 0.58
11:17:41.662 0.57
11:17:41.677 0.55
11:17:41.690 0.54
11:17:41.715 0.52
11:17:41.740 0.51
11:17:41.749 0.51
11:17:41.765 0.51
11:17:41.777 0.5
11:17:41.792 0.5
11:17:41.821 0.49
11:17:41.841 0.49
11:17:41.841 0.49
11:17:41.862 0.49
11:17:41.862 0.5
11:17:41.878 0.51
11:17:41.892 0.51
11:17:41.904 0.51
11:17:41.915 0.5
11:17:41.940 0.49
11:17:41.952 0.48
11:17:41.966 0.46
11:17:41.982 0.44
11:17:42.004 0.42
11:17:42.004 0.41
11:17:42.074 0.38
11:17:42.074 0.36
11:17:42.074 0.35
11:17:42.090 0.34
11:17:42.090 0.32
11:17:42.104 0.31
11:17:42.132 0.31
11:17:42.147 0.3
11:17:42.172 0.28
11:17:42.243 0.27
11:17:42.243 0.27
11:17:42.243 0.26
11:17:42.243 0.25
11:17:42.262 0.24
11:17:42.271 0.23
11:17:42.281 0.22
11:17:42.292 0.21
11:17:42.327 0.19
11:17:42.342 0.19
11:17:42.368 0.16
11:17:42.380 0.15
11:17:42.392 0.15
11:17:42.461 0.15
11:17:42.461 0.19
11:17:42.461 0.26
11:17:42.479 0.37
11:17:42.479 0.48
11:17:42.501 0.58
11:17:42.529 0.65
11:17:42.543 0.68
11:17:42.557 0.69
11:17:42.645 0.66
11:17:42.645 0.64
11:17:42.645 0.62
11:17:42.645 0.6
11:17:42.662 0.59
11:17:42.662 0.59
11:17:42.739 0.58
11:17:42.739 0.57
11:17:42.739 0.57
11:17:42.739 0.56
11:17:42.758 0.56
11:17:42.769 0.56
11:17:42.789 0.56
11:17:42.801 0.56
11:17:42.808 0.56
11:17:42.821 0.56
11:17:42.843 0.55
11:17:42.857 0.54
11:17:42.880 0.53
11:17:42.895 0.51
11:17:42.907 0.5
11:17:42.916 0.48
11:17:42.946 0.45
11:17:42.961 0.44
11:17:42.975 0.42
11:17:42.992 0.41
11:17:43.009 0.39
11:17:43.024 0.38
11:17:43.037 0.37
11:17:43.052 0.36
11:17:43.073 0.35
11:17:43.089 0.34
11:17:43.104 0.33
11:17:43.120 0.32
11:17:43.136 0.32
11:17:43.151 0.31
11:17:43.164 0.3
11:17:43.187 0.29
11:17:43.199 0.28
11:17:43.211 0.27
11:17:43.244 0.25
11:17:43.260 0.24
11:17:43.260 0.23
11:17:43.338 0.22
11:17:43.338 0.21
11:17:43.338 0.2
11:17:43.338 0.19
11:17:43.364 0.17
11:17:43.379 0.17
11:17:43.379 0.19
11:17:43.395 0.25
11:17:43.424 0.46
11:17:43.486 0.57
11:17:43.486 0.65
11:17:43.486 0.69
11:17:43.522 0.7
11:17:43.537 0.7
11:17:43.615 0.66
11:17:43.615 0.65
11:17:43.615 0.63
11:17:43.630 0.62
11:17:43.659 0.61
11:17:43.689 0.6
11:17:43.701 0.59
11:17:43.716 0.59
11:17:43.784 0.59
11:17:43.784 0.59
11:17:43.784 0.6
11:17:43.784 0.6
11:17:43.803 0.6
11:17:43.814 0.59
11:17:43.843 0.57
11:17:43.874 0.54
11:17:43.893 0.53
11:17:43.905 0.51
11:17:43.928 0.48
11:17:43.963 0.45
11:17:43.992 0.43
11:17:44.018 0.41
11:17:44.049 0.39
11:17:44.079 0.38
11:17:44.107 0.36
11:17:44.172 0.35
11:17:44.172 0.35
11:17:44.172 0.34
11:17:44.188 0.33
11:17:44.202 0.32
11:17:44.212 0.31
11:17:44.297 0.29
11:17:44.297 0.28
11:17:44.297 0.27
11:17:44.297 0.25
11:17:44.312 0.25
11:17:44.312 0.25
11:17:44.330 0.27
11:17:44.353 0.33
11:17:44.368 0.42
11:17:44.381 0.52
11:17:44.394 0.62
11:17:44.409 0.69
11:17:44.430 0.73
11:17:44.442 0.74
11:17:44.466 0.73
11:17:44.480 0.71
11:17:44.495 0.68
11:17:44.578 0.66
11:17:44.578 0.65
11:17:44.578 0.64
11:17:44.578 0.63
11:17:44.597 0.63
11:17:44.615 0.62
11:17:44.615 0.61
11:17:44.640 0.6
11:17:44.655 0.6
11:17:44.667 0.6
11:17:44.689 0.61
11:17:44.709 0.61
11:17:44.709 0.61
11:17:44.735 0.61
11:17:44.753 0.6
11:17:44.771 0.59
11:17:44.795 0.56
11:17:44.820 0.54
11:17:44.833 0.53
11:17:44.845 0.52
11:17:44.910 0.5
11:17:44.910 0.49
11:17:44.910 0.48
11:17:44.910 0.46
11:17:44.935 0.45
11:17:44.952 0.44
11:17:44.952 0.43
11:17:44.965 0.42
11:17:44.978 0.41
11:17:45.000 0.4
11:17:45.023 0.39
11:17:45.038 0.39
11:17:45.038 0.38
11:17:45.051 0.36
11:17:45.066 0.35
11:17:45.081 0.34
11:17:45.093 0.33
11:17:45.113 0.32
11:17:45.129 0.31
11:17:45.143 0.3
11:17:45.167 0.29
11:17:45.199 0.26
11:17:45.210 0.26
11:17:45.222 0.27
11:17:45.241 0.31
11:17:45.302 0.38
11:17:45.302 0.48
11:17:45.302 0.58
11:17:45.302 0.67
11:17:45.322 0.73
11:17:45.335 0.75
11:17:45.348 0.76
11:17:45.359 0.75
11:17:45.371 0.73
11:17:45.392 0.71
11:17:45.410 0.7
11:17:45.425 0.69
11:17:45.440 0.69
11:17:45.464 0.69
11:17:45.481 0.69
11:17:45.539 0.68
11:17:45.539 0.67
11:17:45.539 0.66
11:17:45.600 0.66
11:17:45.600 0.66
11:17:45.600 0.66
11:17:45.600 0.66
11:17:45.610 0.66
11:17:45.627 0.65
11:17:45.694 0.64
11:17:45.694 0.63
11:17:45.711 0.62
11:17:45.711 0.6
11:17:45.734 0.59
11:17:45.745 0.57
11:17:45.766 0.56
11:17:45.776 0.54
11:17:45.803 0.53
11:17:45.803 0.52
11:17:45.832 0.49
11:17:45.857 0.47
11:17:45.927 0.46
11:17:45.927 0.45
11:17:45.927 0.44
11:17:45.943 0.43
11:17:45.958 0.43
11:17:45.973 0.42
11:17:45.985 0.41
11:17:46.008 0.4
11:17:46.021 0.38
11:17:46.035 0.37
11:17:46.048 0.36
11:17:46.062 0.35
11:17:46.075 0.34
11:17:46.113 0.32
11:17:46.133 0.3
11:17:46.151 0.29
11:17:46.216 0.28
11:17:46.216 0.28
11:17:46.216 0.3
11:17:46.231 0.36
11:17:46.253 0.55
11:17:46.271 0.66
11:17:46.282 0.74
11:17:46.294 0.78
11:17:46.307 0.8
11:17:46.319 0.79
11:17:46.332 0.78
11:17:46.352 0.76
11:17:46.370 0.75
11:17:46.378 0.75
11:17:46.455 0.75
11:17:46.455 0.75
11:17:46.455 0.75
11:17:46.455 0.75
11:17:46.488 0.74
11:17:46.502 0.73
11:17:46.586 0.72
11:17:46.586 0.72
11:17:46.586 0.72
11:17:46.604 0.72
11:17:46.624 0.71
11:17:46.624 0.7
11:17:46.624 0.69
11:17:46.647 0.68
11:17:46.660 0.66
11:17:46.672 0.65
11:17:46.755 0.63
11:17:46.755 0.62
11:17:46.755 0.6
11:17:46.755 0.59
11:17:46.781 0.58
11:17:46.793 0.56
11:17:46.793 0.55
11:17:46.812 0.54
11:17:46.823 0.53
11:17:46.844 0.52
11:17:46.855 0.51
11:17:46.870 0.5
11:17:46.882 0.49
11:17:46.905 0.49
11:17:46.918 0.47
11:17:46.932 0.46
11:17:46.943 0.45
11:17:46.967 0.44
11:17:46.973 0.43
11:17:46.989 0.41
11:17:47.001 0.4
11:17:47.022 0.39
11:17:47.034 0.38
11:17:47.057 0.37
11:17:47.075 0.36
11:17:47.088 0.34
11:17:47.102 0.33
11:17:47.110 0.32
11:17:47.120 0.31
11:17:47.193 0.3
11:17:47.193 0.29
11:17:47.193 0.29
11:17:47.220 0.27
11:17:47.232 0.27
11:17:47.254 0.37
11:17:47.268 0.47
11:17:47.281 0.58
11:17:47.292 0.69
11:17:47.310 0.76
11:17:47.323 0.8
11:17:47.338 0.81
11:17:47.403 0.8
11:17:47.403 0.79
11:17:47.403 0.77
11:17:47.403 0.76
11:17:47.416 0.76
11:17:47.429 0.76
11:17:47.446 0.77
11:17:47.535 0.77
11:17:47.535 0.76
11:17:47.535 0.76
11:17:47.545 0.75
11:17:47.612 0.74
11:17:47.612 0.74
11:17:47.612 0.74
11:17:47.612 0.75
11:17:47.629 0.74
11:17:47.639 0.74
11:17:47.647 0.73
11:17:47.664 0.72
11:17:47.679 0.71
11:17:47.768 0.67
11:17:47.768 0.66
11:17:47.768 0.64
11:17:47.784 0.62
11:17:47.797 0.61
11:17:47.820 0.58
11:17:47.847 0.55
11:17:47.912 0.54
11:17:47.912 0.53
11:17:47.912 0.52
11:17:47.912 0.52
11:17:47.932 0.51
11:17:47.948 0.5
11:17:47.965 0.48
11:17:48.033 0.47
11:17:48.033 0.46
11:17:48.033 0.44
11:17:48.033 0.43
11:17:48.053 0.42
11:17:48.065 0.41
11:17:48.091 0.39
11:17:48.115 0.36
11:17:48.179 0.35
11:17:48.179 0.34
11:17:48.193 0.33
11:17:48.193 0.32
11:17:48.207 0.33
11:17:48.218 0.36
11:17:48.283 0.43
11:17:48.283 0.52
11:17:48.283 0.63
11:17:48.283 0.73
11:17:48.299 0.8
11:17:48.311 0.83
11:17:48.327 0.84
11:17:48.337 0.83
11:17:48.347 0.81
11:17:48.419 0.79
11:17:48.419 0.78
11:17:48.419 0.77
11:17:48.419 0.77
11:17:48.434 0.76
11:17:48.448 0.76
11:17:48.537 0.74
11:17:48.537 0.73
11:17:48.537 0.73
11:17:48.556 0.73
11:17:48.567 0.73
11:17:48.631 0.74
11:17:48.631 0.73
11:17:48.631 0.73
11:17:48.637 0.71
11:17:48.637 0.7
11:17:48.699 0.68
11:17:48.699 0.67
11:17:48.699 0.65
11:17:48.718 0.63
11:17:48.730 0.61
11:17:48.754 0.59
11:17:48.771 0.58
11:17:48.785 0.56
11:17:48.797 0.55
11:17:48.807 0.53
11:17:48.820 0.52
11:17:48.836 0.51
11:17:48.901 0.5
11:17:48.901 0.49
11:17:48.901 0.48
11:17:48.901 0.47
11:17:48.914 0.46
11:17:48.982 0.44
11:17:48.982 0.43
11:17:48.982 0.42
11:17:48.982 0.41
11:17:48.994 0.4
11:17:49.005 0.38
11:17:49.020 0.37
11:17:49.032 0.36
11:17:49.048 0.34
11:17:49.059 0.33
11:17:49.129 0.32
11:17:49.129 0.31
11:17:49.129 0.3
11:17:49.129 0.28
11:17:49.144 0.27
11:17:49.163 0.26
11:17:49.233 0.26
11:17:49.233 0.28
11:17:49.233 0.34
11:17:49.233 0.43
11:17:49.245 0.54
11:17:49.321 0.75
11:17:49.321 0.81
11:17:49.321 0.83
11:17:49.335 0.83
11:17:49.335 0.82
11:17:49.429 0.8
11:17:49.429 0.79
11:17:49.429 0.78
11:17:49.429 0.77
11:17:49.444 0.77
11:17:49.444 0.77
11:17:49.458 0.77
11:17:49.469 0.77
11:17:49.551 0.75
11:17:49.551 0.74
11:17:49.566 0.74
11:17:49.664 0.74
11:17:49.664 0.74
11:17:49.664 0.74
11:17:49.664 0.73
11:17:49.682 0.71
11:17:49.695 0.7
11:17:49.704 0.68
11:17:49.729 0.65
11:17:49.793 0.61
11:17:49.819 0.58
11:17:49.892 0.54
11:17:49.892 0.53
11:17:49.915 0.49
11:17:49.941 0.47
11:17:49.951 0.46
11:17:50.019 0.44
11:17:50.019 0.43
11:17:50.030 0.4
11:17:50.044 0.39
11:17:50.119 0.36
11:17:50.119 0.35
11:17:50.119 0.32
11:17:50.133 0.31
11:17:50.148 0.28
11:17:50.219 0.27
11:17:50.219 0.26
11:17:50.219 0.25
11:17:50.231 0.24
11:17:50.241 0.23
11:17:50.322 0.21
11:17:50.322 0.2
11:17:50.322 0.22
11:17:50.322 0.27
11:17:50.333 0.37
11:17:50.343 0.49
11:17:50.360 0.61
11:17:50.370 0.71
11:17:50.387 0.78
11:17:50.412 0.8
11:17:50.428 0.8
11:17:50.438 0.79
11:17:50.448 0.77
11:17:50.458 0.75
11:17:50.528 0.74
11:17:50.528 0.73
11:17:50.528 0.73
11:17:50.528 0.73
11:17:50.545 0.73
11:17:50.601 0.72
11:17:50.667 0.7
11:17:50.667 0.7
11:17:50.667 0.7
11:17:50.678 0.7
11:17:50.678 0.7
11:17:50.690 0.7
11:17:50.714 0.69
11:17:50.737 0.68
11:17:50.752 0.67
11:17:50.837 0.63
11:17:50.837 0.54
11:17:50.905 0.53
11:17:50.905 0.51
11:17:50.922 0.49
11:17:50.932 0.48
11:17:50.942 0.47
11:17:50.951 0.46
11:17:51.015 0.45
11:17:51.015 0.44
11:17:51.015 0.42
11:17:51.031 0.41
11:17:51.031 0.4
11:17:51.045 0.39
11:17:51.114 0.38
11:17:51.114 0.37
11:17:51.114 0.36
11:17:51.114 0.34
11:17:51.125 0.33
11:17:51.135 0.31
11:17:51.145 0.3
11:17:51.163 0.29
11:17:51.172 0.27
11:17:51.235 0.26
11:17:51.235 0.25
11:17:51.235 0.24
11:17:51.315 0.21
11:17:51.315 0.2
11:17:51.315 0.19
11:17:51.315 0.18
11:17:51.334 0.18
11:17:51.334 0.2
11:17:51.353 0.26
11:17:51.361 0.36
11:17:51.369 0.49
11:17:51.437 0.61
11:17:51.437 0.7
11:17:51.437 0.76
11:17:51.460 0.78
11:17:51.475 0.78
11:17:51.475 0.76
11:17:51.486 0.74
11:17:51.563 0.71
11:17:51.563 0.7
11:17:51.563 0.7
11:17:51.572 0.69
11:17:51.643 0.67
11:17:51.655 0.66
11:17:51.655 0.66
11:17:51.719 0.66
11:17:51.719 0.66
11:17:51.719 0.66
11:17:51.719 0.66
11:17:51.738 0.66
11:17:51.746 0.65
11:17:51.755 0.64
11:17:51.836 0.63
11:17:51.836 0.61
11:17:51.836 0.59
11:17:51.848 0.57
11:17:51.848 0.56
11:17:51.860 0.54
11:17:51.875 0.52
11:17:51.943 0.5
11:17:51.943 0.48
11:17:51.943 0.46
11:17:51.943 0.45
11:17:51.960 0.44
11:17:51.969 0.42
11:17:51.978 0.41
11:17:51.988 0.4
11:17:52.061 0.39
11:17:52.061 0.38
11:17:52.061 0.37
11:17:52.061 0.36
11:17:52.082 0.35
11:17:52.082 0.34
11:17:52.092 0.33
11:17:52.108 0.32
11:17:52.118 0.31
11:17:52.186 0.3
11:17:52.186 0.29
11:17:52.186 0.27
11:17:52.206 0.26
11:17:52.218 0.25
11:17:52.218 0.24
11:17:52.229 0.22
11:17:52.301 0.21
11:17:52.301 0.2
11:17:52.301 0.19
11:17:52.301 0.19
11:17:52.316 0.21
11:17:52.316 0.25
11:17:52.327 0.34
11:17:52.394 0.45
11:17:52.394 0.57
11:17:52.394 0.66
11:17:52.413 0.71
11:17:52.413 0.73
11:17:52.428 0.73
11:17:52.439 0.71
11:17:52.448 0.69
11:17:52.458 0.66
11:17:52.530 0.63
11:17:52.530 0.62
11:17:52.552 0.61
11:17:52.552 0.6
11:17:52.572 0.59
11:17:52.641 0.58
11:17:52.641 0.57
11:17:52.641 0.57
11:17:52.653 0.58
11:17:52.662 0.58
11:17:52.675 0.59
11:17:52.694 0.58
11:17:52.702 0.58
11:17:52.713 0.56
11:17:52.722 0.55
11:17:52.761 0.53
11:17:52.830 0.51
11:17:52.830 0.49
11:17:52.830 0.47
11:17:52.830 0.46
11:17:52.845 0.44
11:17:52.855 0.42
11:17:52.925 0.41
11:17:52.925 0.39
11:17:52.925 0.37
11:17:52.925 0.36
11:17:52.936 0.35
11:17:52.947 0.34
11:17:52.960 0.33
11:17:53.026 0.32
11:17:53.026 0.31
11:17:53.026 0.3
11:17:53.026 0.29
11:17:53.039 0.28
11:17:53.047 0.27
11:17:53.056 0.26
11:17:53.123 0.25
11:17:53.123 0.24
11:17:53.123 0.23
11:17:53.136 0.2
11:17:53.207 0.19
11:17:53.207 0.18
11:17:53.207 0.19
11:17:53.223 0.22
11:17:53.223 0.29
11:17:53.235 0.39
11:17:53.254 0.5
11:17:53.263 0.59
11:17:53.274 0.65
11:17:53.339 0.67
11:17:53.339 0.67
11:17:53.339 0.66
11:17:53.356 0.64
11:17:53.356 0.62
11:17:53.371 0.6
11:17:53.378 0.59
11:17:53.443 0.58
11:17:53.443 0.57
11:17:53.443 0.57
11:17:53.443 0.56
11:17:53.460 0.55
11:17:53.471 0.53
11:17:53.480 0.53
11:17:53.552 0.53
11:17:53.552 0.53
11:17:53.552 0.54
11:17:53.564 0.53
11:17:53.644 0.53
11:17:53.644 0.52
11:17:53.644 0.51
11:17:53.644 0.49
11:17:53.661 0.47
11:17:53.661 0.46
11:17:53.676 0.44
11:17:53.739 0.42
11:17:53.739 0.41
11:17:53.739 0.39
11:17:53.816 0.37
11:17:53.816 0.36
11:17:53.816 0.34
11:17:53.816 0.33
11:17:53.835 0.32
11:17:53.835 0.31
11:17:53.847 0.29
11:17:53.858 0.28
11:17:53.875 0.27
11:17:53.888 0.26
11:17:53.957 0.25
11:17:53.957 0.24
11:17:53.957 0.23
11:17:53.980 0.22
11:17:53.980 0.21
11:17:53.991 0.19
11:17:54.004 0.18
11:17:54.014 0.17
11:17:54.025 0.16
11:17:54.101 0.14
11:17:54.101 0.12
11:17:54.101 0.11
11:17:54.120 0.11
11:17:54.133 0.18
11:17:54.205 0.26
11:17:54.205 0.37
11:17:54.205 0.48
11:17:54.220 0.56
11:17:54.220 0.61
11:17:54.230 0.62
11:17:54.297 0.62
11:17:54.297 0.6
11:17:54.297 0.59
11:17:54.297 0.57
11:17:54.305 0.56
11:17:54.369 0.55
11:17:54.369 0.55
11:17:54.369 0.55
11:17:54.369 0.55
11:17:54.383 0.55
11:17:54.448 0.54
11:17:54.448 0.53
11:17:54.448 0.53
11:17:54.448 0.53
11:17:54.463 0.53
11:17:54.474 0.53
11:17:54.542 0.52
11:17:54.542 0.51
11:17:54.542 0.5
11:17:54.555 0.49
11:17:54.603 0.48
11:17:54.603 0.46
11:17:54.628 0.44
11:17:54.640 0.43
11:17:54.650 0.41
11:17:54.722 0.4
11:17:54.722 0.38
11:17:54.722 0.37
11:17:54.722 0.36
11:17:54.742 0.35
11:17:54.810 0.34
11:17:54.810 0.33
11:17:54.810 0.32
11:17:54.810 0.31
11:17:54.821 0.31
11:17:54.832 0.3
11:17:54.903 0.29
11:17:54.903 0.28
11:17:54.903 0.27
11:17:54.903 0.26
11:17:54.916 0.25
11:17:54.926 0.24
11:17:54.937 0.23
11:17:55.014 0.21
11:17:55.014 0.2
11:17:55.014 0.18
11:17:55.014 0.17
11:17:55.035 0.16
11:17:55.045 0.16
11:17:55.054 0.15
11:17:55.063 0.15
11:17:55.136 0.18
11:17:55.136 0.23
11:17:55.136 0.33
11:17:55.136 0.44
11:17:55.159 0.55
11:17:55.170 0.64
11:17:55.243 0.69
11:17:55.243 0.7
11:17:55.243 0.7
11:17:55.243 0.68
11:17:55.256 0.67
11:17:55.267 0.65
11:17:55.275 0.64
11:17:55.284 0.63
11:17:55.347 0.63
11:17:55.347 0.63
11:17:55.347 0.63
11:17:55.360 0.62
11:17:55.360 0.61
11:17:55.382 0.61
11:17:55.390 0.61
11:17:55.408 0.61
11:17:55.417 0.61
11:17:55.481 0.61
11:17:55.481 0.61
11:17:55.481 0.6
11:17:55.481 0.59
11:17:55.507 0.58
11:17:55.575 0.57
11:17:55.575 0.55
11:17:55.575 0.54
11:17:55.652 0.51
11:17:55.652 0.49
11:17:55.652 0.48
11:17:55.666 0.47
11:17:55.676 0.45
11:17:55.689 0.44
11:17:55.699 0.43
11:17:55.762 0.42
11:17:55.762 0.42
11:17:55.775 0.41
11:17:55.790 0.4
11:17:55.798 0.39
11:17:55.859 0.38
11:17:55.859 0.37
11:17:55.859 0.36
11:17:55.864 0.35
11:17:55.920 0.34
11:17:55.920 0.32
11:17:55.920 0.32
11:17:55.920 0.31
11:17:55.927 0.3
11:17:55.991 0.29
11:17:55.991 0.28
11:17:55.991 0.27
11:17:56.009 0.26
11:17:56.009 0.25
11:17:56.032 0.23
11:17:56.041 0.22
11:17:56.056 0.21
11:17:56.072 0.22
11:17:56.095 0.26
11:17:56.107 0.34
11:17:56.119 0.46
11:17:56.127 0.58
11:17:56.191 0.69
11:17:56.191 0.76
11:17:56.191 0.79
11:17:56.201 0.8
11:17:56.272 0.78
11:17:56.272 0.77
11:17:56.272 0.75
11:17:56.272 0.73
11:17:56.288 0.72
11:17:56.288 0.72
11:17:56.357 0.72
11:17:56.357 0.71
11:17:56.357 0.71
11:17:56.357 0.7
11:17:56.371 0.69
11:17:56.442 0.69
11:17:56.442 0.69
11:17:56.442 0.69
11:17:56.442 0.69
11:17:56.457 0.69
11:17:56.518 0.68
11:17:56.518 0.66
11:17:56.518 0.65
11:17:56.518 0.63
11:17:56.539 0.62
11:17:56.607 0.6
11:17:56.607 0.58
11:17:56.607 0.56
11:17:56.625 0.55
11:17:56.636 0.53
11:17:56.700 0.52
11:17:56.700 0.51
11:17:56.700 0.49
11:17:56.712 0.48
11:17:56.721 0.47
11:17:56.738 0.46
11:17:56.798 0.45
11:17:56.798 0.44
11:17:56.798 0.43
11:17:56.809 0.42
11:17:56.882 0.41
11:17:56.882 0.4
11:17:56.882 0.39
11:17:56.882 0.38
11:17:56.896 0.36
11:17:56.903 0.35
11:17:56.960 0.34
11:17:56.960 0.33
11:17:56.960 0.31
11:17:56.960 0.3
11:17:57.024 0.29
11:17:57.024 0.28
11:17:57.024 0.27
11:17:57.024 0.26
11:17:57.037 0.26
11:17:57.052 0.28
11:17:57.067 0.33
11:17:57.131 0.42
11:17:57.131 0.54
11:17:57.131 0.65
11:17:57.131 0.74
11:17:57.144 0.8
11:17:57.169 0.82
11:17:57.238 0.81
11:17:57.238 0.8
11:17:57.238 0.77
11:17:57.238 0.75
11:17:57.249 0.74
11:17:57.257 0.73
11:17:57.336 0.72
11:17:57.336 0.71
11:17:57.336 0.71
11:17:57.336 0.69
11:17:57.370 0.69
11:17:57.370 0.69
11:17:57.370 0.69
11:17:57.455 0.69
11:17:57.455 0.68
11:17:57.455 0.67
11:17:57.455 0.66
11:17:57.477 0.63
11:17:57.486 0.61
11:17:57.495 0.59
11:17:57.562 0.57
11:17:57.575 0.55
11:17:57.575 0.53
11:17:57.655 0.5
11:17:57.655 0.48
11:17:57.669 0.46
11:17:57.680 0.44
11:17:57.749 0.43
11:17:57.749 0.42
11:17:57.749 0.41
11:17:57.749 0.4
11:17:57.764 0.39
11:17:57.830 0.38
11:17:57.830 0.37
11:17:57.830 0.36
11:17:57.839 0.35
11:17:57.908 0.34
11:17:57.908 0.32
11:17:57.908 0.31
11:17:57.908 0.3
11:17:57.922 0.29
11:17:57.933 0.27
11:17:57.942 0.26
11:17:58.014 0.24
11:17:58.014 0.23
11:17:58.014 0.22
11:17:58.025 0.22
11:17:58.051 0.3
11:17:58.060 0.39
11:17:58.129 0.51
11:17:58.129 0.62
11:17:58.129 0.7
11:17:58.129 0.75
11:17:58.198 0.77
11:17:58.198 0.76
11:17:58.198 0.74
11:17:58.198 0.72
11:17:58.224 0.7
11:17:58.234 0.68
11:17:58.307 0.67
11:17:58.307 0.66
11:17:58.307 0.65
11:17:58.307 0.65
11:17:58.370 0.64
11:17:58.370 0.63
11:17:58.370 0.63
11:17:58.370 0.64
11:17:58.382 0.64
11:17:58.382 0.64
11:17:58.451 0.64
11:17:58.451 0.63
11:17:58.451 0.62
11:17:58.451 0.61
11:17:58.464 0.59
11:17:58.528 0.57
11:17:58.528 0.56
11:17:58.528 0.54
11:17:58.528 0.52
11:17:58.538 0.51
11:17:58.602 0.49
11:17:58.602 0.48
11:17:58.602 0.46
11:17:58.624 0.45
11:17:58.634 0.44
11:17:58.697 0.43
11:17:58.697 0.42
11:17:58.697 0.41
11:17:58.709 0.4
11:17:58.719 0.39
11:17:58.785 0.38
11:17:58.785 0.37
11:17:58.785 0.36
11:17:58.801 0.35
11:17:58.812 0.34
11:17:58.829 0.33
11:17:58.837 0.31
11:17:58.904 0.3
11:17:58.904 0.29
11:17:58.904 0.27
11:17:58.904 0.26
11:17:58.916 0.25
11:17:58.978 0.26
11:17:58.978 0.28
11:17:58.978 0.35
11:17:58.991 0.45
11:17:58.991 0.56
11:17:59.011 0.67
11:17:59.019 0.75
11:17:59.085 0.79
11:17:59.085 0.8
11:17:59.085 0.79
11:17:59.085 0.77
11:17:59.098 0.75
11:17:59.108 0.73
11:17:59.181 0.71
11:17:59.181 0.71
11:17:59.181 0.7
11:17:59.199 0.7
11:17:59.210 0.7
11:17:59.220 0.68
11:17:59.231 0.67
11:17:59.249 0.67
11:17:59.256 0.67
11:17:59.331 0.67
11:17:59.331 0.67
11:17:59.331 0.67
11:17:59.346 0.66
11:17:59.355 0.65
11:17:59.355 0.64
11:17:59.426 0.62
11:17:59.426 0.61
11:17:59.426 0.59
11:17:59.426 0.57
11:17:59.497 0.56
11:17:59.497 0.54
11:17:59.497 0.52
11:17:59.497 0.51
11:17:59.512 0.49
11:17:59.520 0.48
11:17:59.593 0.47
11:17:59.593 0.45
11:17:59.593 0.44
11:17:59.612 0.43
11:17:59.692 0.42
11:17:59.692 0.42
11:17:59.713 0.39
11:17:59.721 0.38
11:17:59.792 0.36
11:17:59.792 0.35
11:17:59.801 0.33
11:17:59.812 0.32
11:17:59.826 0.31
11:17:59.889 0.3
11:17:59.889 0.29
11:17:59.901 0.3
11:17:59.977 0.4
11:17:59.977 0.5
11:17:59.977 0.72
11:17:59.983 0.79
11:18:00.058 0.82
11:18:00.058 0.81
11:18:00.058 0.79
11:18:00.084 0.77
11:18:00.099 0.75
11:18:00.099 0.75
11:18:00.110 0.74
11:18:00.174 0.74
11:18:00.174 0.73
11:18:00.174 0.72
11:18:00.185 0.71
11:18:00.194 0.71
11:18:00.267 0.71
11:18:00.267 0.71
11:18:00.267 0.71
11:18:00.267 0.7
11:18:00.280 0.69
11:18:00.288 0.68
11:18:00.347 0.67
11:18:00.347 0.65
11:18:00.347 0.63
11:18:00.347 0.62
11:18:00.403 0.6
11:18:00.403 0.58
11:18:00.403 0.56
11:18:00.472 0.52
11:18:00.472 0.51
11:18:00.472 0.49
11:18:00.472 0.48
11:18:00.558 0.44
11:18:00.558 0.42
11:18:00.568 0.41
11:18:00.636 0.39
11:18:00.636 0.38
11:18:00.636 0.37
11:18:00.649 0.36
11:18:00.719 0.34
11:18:00.719 0.32
11:18:00.731 0.31
11:18:00.741 0.3
11:18:00.805 0.28
11:18:00.805 0.27
11:18:00.805 0.27
11:18:00.815 0.29
11:18:00.828 0.34
11:18:00.892 0.42
11:18:00.892 0.53
11:18:00.911 0.72
11:18:00.917 0.76
11:18:00.979 0.77
11:18:00.979 0.76
11:18:00.979 0.74
11:18:00.979 0.72
11:18:01.056 0.7
11:18:01.056 0.69
11:18:01.056 0.69
11:18:01.056 0.68
11:18:01.067 0.67
11:18:01.078 0.66
11:18:01.095 0.65
11:18:01.108 0.64
11:18:01.167 0.64
11:18:01.167 0.64
11:18:01.167 0.64
11:18:01.167 0.63
11:18:01.179 0.63
11:18:01.244 0.61
11:18:01.244 0.6
11:18:01.244 0.58
11:18:01.257 0.57
11:18:01.269 0.55
11:18:01.332 0.53
11:18:01.332 0.52
11:18:01.332 0.5
11:18:01.332 0.49
11:18:01.349 0.47
11:18:01.349 0.46
11:18:01.358 0.44
11:18:01.427 0.43
11:18:01.427 0.42
11:18:01.427 0.41
11:18:01.427 0.4
11:18:01.439 0.39
11:18:01.447 0.38
11:18:01.517 0.36
11:18:01.517 0.35
11:18:01.517 0.34
11:18:01.528 0.33
11:18:01.539 0.31
11:18:01.547 0.3
11:18:01.617 0.28
11:18:01.617 0.27
11:18:01.645 0.25
11:18:01.645 0.24
11:18:01.656 0.23
11:18:01.727 0.22
11:18:01.727 0.21
11:18:01.727 0.21
11:18:01.739 0.24
11:18:01.746 0.29
11:18:01.816 0.38
11:18:01.816 0.49
11:18:01.816 0.58
11:18:01.816 0.65
11:18:01.830 0.68
11:18:01.901 0.68
11:18:01.901 0.67
11:18:01.901 0.65
11:18:01.901 0.62
11:18:01.912 0.61
11:18:01.922 0.6
11:18:01.929 0.6
11:18:01.997 0.6
11:18:01.997 0.6
11:18:01.997 0.6
11:18:02.018 0.58
11:18:02.018 0.57
11:18:02.028 0.57
11:18:02.028 0.57
11:18:02.092 0.57
11:18:02.092 0.56
11:18:02.092 0.56
11:18:02.106 0.55
11:18:02.106 0.54
11:18:02.117 0.53
11:18:02.186 0.52
11:18:02.186 0.5
11:18:02.186 0.48
11:18:02.197 0.47
11:18:02.206 0.45
11:18:02.213 0.44
11:18:02.276 0.43
11:18:02.276 0.41
11:18:02.276 0.4
11:18:02.287 0.39
11:18:02.294 0.37
11:18:02.304 0.36
11:18:02.366 0.35
11:18:02.366 0.34
11:18:02.366 0.33
11:18:02.366 0.33
11:18:02.379 0.32
11:18:02.443 0.31
11:18:02.443 0.3
11:18:02.443 0.29
11:18:02.443 0.28
11:18:02.454 0.27
11:18:02.529 0.25
11:18:02.529 0.23
11:18:02.529 0.22
11:18:02.529 0.21
11:18:02.541 0.2
11:18:02.557 0.19
11:18:02.621 0.18
11:18:02.621 0.17
11:18:02.632 0.16
11:18:02.642 0.16
11:18:02.731 0.16
11:18:02.731 0.19
11:18:02.731 0.25
11:18:02.749 0.35
11:18:02.749 0.45
11:18:02.749 0.54
11:18:02.762 0.6
11:18:02.772 0.62
11:18:02.841 0.62
11:18:02.841 0.6
11:18:02.841 0.58
11:18:02.854 0.56
11:18:02.871 0.55
11:18:02.878 0.54
11:18:02.940 0.54
11:18:02.940 0.54
11:18:02.940 0.54
11:18:02.940 0.53
11:18:02.949 0.52
11:18:03.010 0.51
11:18:03.010 0.51
11:18:03.010 0.51
11:18:03.018 0.51
11:18:03.036 0.51
11:18:03.047 0.51
11:18:03.052 0.5
11:18:03.115 0.49
11:18:03.115 0.48
11:18:03.115 0.47
11:18:03.115 0.46
11:18:03.132 0.44
11:18:03.199 0.43
11:18:03.199 0.42
11:18:03.199 0.41
11:18:03.199 0.39
11:18:03.271 0.37
11:18:03.271 0.36
11:18:03.271 0.35
11:18:03.284 0.34
11:18:03.293 0.34
11:18:03.357 0.33
11:18:03.357 0.32
11:18:03.357 0.32
11:18:03.369 0.3
11:18:03.385 0.29
11:18:03.395 0.28
11:18:03.410 0.28
11:18:03.473 0.27
11:18:03.473 0.26
11:18:03.473 0.25
11:18:03.488 0.24
11:18:03.488 0.23
11:18:03.500 0.22
11:18:03.509 0.21
11:18:03.569 0.2
11:18:03.569 0.19
11:18:03.569 0.18
11:18:03.569 0.19
11:18:03.633 0.22
11:18:03.633 0.28
11:18:03.633 0.36
11:18:03.702 0.46
11:18:03.702 0.54
11:18:03.715 0.61
11:18:03.726 0.61
11:18:03.808 0.59
11:18:03.808 0.56
11:18:03.808 0.54
11:18:03.808 0.53
11:18:03.818 0.52
11:18:03.830 0.52
11:18:03.902 0.52
11:18:03.902 0.51
11:18:03.902 0.5
11:18:03.902 0.49
11:18:03.911 0.48
11:18:03.982 0.49
11:18:03.982 0.49
11:18:03.982 0.49
11:18:03.992 0.49
11:18:04.003 0.48
11:18:04.065 0.47
11:18:04.065 0.46
11:18:04.065 0.45
11:18:04.076 0.43
11:18:04.076 0.42
11:18:04.137 0.4
11:18:04.137 0.39
11:18:04.137 0.37
11:18:04.207 0.34
11:18:04.207 0.33
11:18:04.207 0.32
11:18:04.268 0.31
11:18:04.268 0.3
11:18:04.268 0.29
11:18:04.278 0.28
11:18:04.345 0.27
11:18:04.345 0.26
11:18:04.345 0.25
11:18:04.345 0.24
11:18:04.357 0.23
11:18:04.368 0.22
11:18:04.377 0.21
11:18:04.440 0.21
11:18:04.440 0.2
11:18:04.440 0.18
11:18:04.455 0.17
11:18:04.455 0.17
11:18:04.463 0.17
11:18:04.526 0.2
11:18:04.526 0.26
11:18:04.526 0.35
11:18:04.535 0.45
11:18:04.541 0.54
11:18:04.550 0.6
11:18:04.613 0.63
11:18:04.613 0.63
11:18:04.629 0.61
11:18:04.693 0.59
11:18:04.693 0.58
11:18:04.707 0.57
11:18:04.707 0.56
11:18:04.775 0.56
11:18:04.775 0.57
11:18:04.775 0.57
11:18:04.775 0.56
11:18:04.786 0.55
11:18:04.882 0.53
11:18:04.882 0.53
11:18:04.882 0.53
11:18:04.892 0.53
11:18:04.892 0.53
11:18:04.960 0.53
11:18:04.960 0.52
11:18:04.960 0.51
11:18:04.960 0.49
11:18:04.972 0.48
11:18:04.981 0.46
11:18:05.049 0.45
11:18:05.049 0.43
11:18:05.049 0.42
11:18:05.049 0.41
11:18:05.061 0.39
11:18:05.117 0.38
11:18:05.117 0.36
11:18:05.117 0.35
11:18:05.123 0.34
11:18:05.178 0.33
11:18:05.178 0.33
11:18:05.178 0.32
11:18:05.239 0.31
11:18:05.239 0.3
11:18:05.239 0.29
11:18:05.239 0.28
11:18:05.297 0.27
11:18:05.297 0.25
11:18:05.297 0.24
11:18:05.297 0.23
11:18:05.309 0.22
11:18:05.379 0.2
11:18:05.379 0.18
11:18:05.379 0.17
11:18:05.379 0.16
11:18:05.391 0.15
11:18:05.456 0.15
11:18:05.456 0.19
11:18:05.456 0.25
11:18:05.456 0.35
11:18:05.476 0.44
11:18:05.547 0.58
11:18:05.547 0.59
11:18:05.547 0.59
11:18:05.547 0.57
11:18:05.561 0.54
11:18:05.579 0.52
11:18:05.590 0.51
11:18:05.605 0.51
11:18:05.672 0.5
11:18:05.672 0.5
11:18:05.684 0.5
11:18:05.694 0.49
11:18:05.707 0.48
11:18:05.769 0.47
11:18:05.769 0.47
11:18:05.769 0.46
11:18:05.778 0.46
11:18:05.787 0.46
11:18:05.850 0.46
11:18:05.850 0.45
11:18:05.874 0.42
11:18:05.887 0.41
11:18:05.887 0.39
11:18:05.951 0.37
11:18:05.951 0.36
11:18:05.951 0.34
11:18:05.951 0.33
11:18:06.029 0.3
11:18:06.029 0.28
11:18:06.029 0.27
11:18:06.029 0.26
11:18:06.044 0.25
11:18:06.053 0.24
11:18:06.120 0.23
11:18:06.120 0.22
11:18:06.120 0.21
11:18:06.120 0.2
11:18:06.140 0.19
11:18:06.209 0.18
11:18:06.209 0.17
11:18:06.209 0.15
11:18:06.209 0.14
11:18:06.220 0.13
11:18:06.228 0.12
11:18:06.297 0.1
11:18:06.297 0.08
11:18:06.297 0.07
11:18:06.309 0.06
11:18:06.322 0.05
11:18:06.336 0.06
11:18:06.346 0.09
11:18:06.416 0.15
11:18:06.416 0.24
11:18:06.416 0.33
11:18:06.416 0.42
11:18:06.424 0.47
11:18:06.501 0.48
11:18:06.501 0.46
11:18:06.501 0.44
11:18:06.501 0.42
11:18:06.514 0.4
11:18:06.580 0.4
11:18:06.580 0.39
11:18:06.580 0.39
11:18:06.580 0.39
11:18:06.593 0.38
11:18:06.665 0.37
11:18:06.665 0.36
11:18:06.665 0.36
11:18:06.737 0.36
11:18:06.737 0.36
11:18:06.737 0.36
11:18:06.737 0.36
11:18:06.748 0.36
11:18:06.813 0.35
11:18:06.813 0.33
11:18:06.813 0.32
11:18:06.813 0.31
11:18:06.900 0.28
11:18:06.900 0.27
11:18:06.900 0.25
11:18:06.909 0.24
11:18:06.919 0.23
11:18:06.984 0.22
11:18:06.984 0.21
11:18:06.984 0.2
11:18:06.984 0.19
11:18:07.010 0.18
11:18:07.019 0.17
11:18:07.028 0.16
11:18:07.037 0.16
11:18:07.117 0.15
11:18:07.117 0.14
11:18:07.117 0.13
11:18:07.117 0.13
11:18:07.133 0.12
11:18:07.142 0.11
11:18:07.152 0.1
11:18:07.216 0.09
11:18:07.216 0.08
11:18:07.216 0.07
11:18:07.228 0.06
11:18:07.238 0.05
11:18:07.246 0.04
11:18:07.254 0.04
11:18:07.316 0.04
11:18:07.316 0.06
11:18:07.316 0.11
11:18:07.326 0.2
11:18:07.335 0.3
11:18:07.345 0.39
11:18:07.415 0.46
11:18:07.415 0.49
11:18:07.415 0.49
11:18:07.415 0.48
11:18:07.424 0.45
11:18:07.489 0.43
11:18:07.489 0.42
11:18:07.489 0.4
11:18:07.489 0.4
11:18:07.502 0.4
11:18:07.511 0.4
11:18:07.579 0.39
11:18:07.579 0.38
11:18:07.579 0.38
11:18:07.579 0.37
11:18:07.589 0.38
11:18:07.597 0.38
11:18:07.657 0.38
11:18:07.657 0.38
11:18:07.670 0.38
11:18:07.735 0.37
11:18:07.735 0.36
11:18:07.735 0.35
11:18:07.741 0.34
11:18:07.800 0.33
11:18:07.800 0.31
11:18:07.800 0.3
11:18:07.810 0.29
11:18:07.873 0.28
11:18:07.873 0.26
11:18:07.873 0.25
11:18:07.888 0.24
11:18:07.888 0.23
11:18:07.904 0.23
11:18:07.982 0.21
11:18:07.982 0.21
11:18:07.982 0.2
11:18:07.992 0.2
11:18:08.002 0.19
11:18:08.080 0.18
11:18:08.080 0.18
11:18:08.080 0.17
11:18:08.080 0.16
11:18:08.091 0.15
11:18:08.091 0.15
11:18:08.102 0.14
11:18:08.164 0.13
11:18:08.164 0.12
11:18:08.164 0.11
11:18:08.182 0.1
11:18:08.192 0.1
11:18:08.205 0.12
11:18:08.217 0.16
11:18:08.282 0.24
11:18:08.282 0.35
11:18:08.282 0.45
11:18:08.282 0.53
11:18:08.295 0.57
11:18:08.365 0.57
11:18:08.365 0.55
11:18:08.365 0.53
11:18:08.379 0.5
11:18:08.442 0.49
11:18:08.442 0.48
11:18:08.442 0.48
11:18:08.442 0.48
11:18:08.456 0.47
11:18:08.468 0.47
11:18:08.536 0.47
11:18:08.536 0.47
11:18:08.536 0.47
11:18:08.536 0.48
11:18:08.550 0.47
11:18:08.618 0.46
11:18:08.618 0.45
11:18:08.618 0.44
11:18:08.632 0.42
11:18:08.699 0.41
11:18:08.699 0.39
11:18:08.718 0.38
11:18:08.786 0.35
11:18:08.786 0.34
11:18:08.786 0.33
11:18:08.786 0.32
11:18:08.798 0.31
11:18:08.805 0.3
11:18:08.876 0.29
11:18:08.876 0.28
11:18:08.876 0.28
11:18:08.886 0.27
11:18:08.950 0.26
11:18:08.950 0.25
11:18:08.950 0.25
11:18:08.965 0.24
11:18:08.972 0.23
11:18:09.047 0.21
11:18:09.047 0.2
11:18:09.047 0.19
11:18:09.047 0.18
11:18:09.070 0.17
11:18:09.082 0.16
11:18:09.100 0.16
11:18:09.110 0.16
11:18:09.117 0.19
11:18:09.180 0.26
11:18:09.180 0.36
11:18:09.244 0.56
11:18:09.244 0.62
11:18:09.244 0.64
11:18:09.244 0.64
11:18:09.256 0.62
11:18:09.318 0.59
11:18:09.318 0.57
11:18:09.318 0.55
11:18:09.337 0.53
11:18:09.417 0.52
11:18:09.417 0.51
11:18:09.417 0.5
11:18:09.432 0.49
11:18:09.442 0.49
11:18:09.456 0.5
11:18:09.466 0.5
11:18:09.529 0.5
11:18:09.529 0.5
11:18:09.529 0.49
11:18:09.540 0.48
11:18:09.610 0.47
11:18:09.610 0.46
11:18:09.610 0.44
11:18:09.610 0.43
11:18:09.687 0.4
11:18:09.687 0.38
11:18:09.687 0.37
11:18:09.701 0.36
11:18:09.720 0.35
11:18:09.783 0.33
11:18:09.797 0.31
11:18:09.861 0.29
11:18:09.861 0.29
11:18:09.877 0.27
11:18:09.949 0.27
11:18:09.949 0.26
11:18:09.949 0.25
11:18:09.966 0.24
11:18:09.979 0.23
11:18:09.989 0.22
11:18:09.998 0.21
11:18:10.069 0.2
11:18:10.069 0.21
11:18:10.069 0.24
11:18:10.069 0.31
11:18:10.080 0.41
11:18:10.153 0.61
11:18:10.153 0.68
11:18:10.153 0.67
11:18:10.164 0.65
11:18:10.175 0.62
11:18:10.249 0.6
11:18:10.249 0.58
11:18:10.249 0.57
11:18:10.262 0.56
11:18:10.271 0.54
11:18:10.345 0.53
11:18:10.345 0.52
11:18:10.345 0.52
11:18:10.357 0.54
11:18:10.414 0.54
11:18:10.414 0.54
11:18:10.414 0.53
11:18:10.425 0.52
11:18:10.487 0.51
11:18:10.487 0.49
11:18:10.487 0.48
11:18:10.487 0.46
11:18:10.497 0.45
11:18:10.563 0.43
11:18:10.563 0.42
11:18:10.563 0.4
11:18:10.563 0.39
11:18:10.575 0.38
11:18:10.584 0.37
11:18:10.601 0.36
11:18:10.611 0.35
11:18:10.676 0.34
11:18:10.676 0.34
11:18:10.676 0.33
11:18:10.701 0.32
11:18:10.771 0.31
11:18:10.771 0.3
11:18:10.771 0.29
11:18:10.785 0.28
11:18:10.851 0.29
11:18:10.851 0.32
11:18:10.851 0.39
11:18:10.863 0.48
11:18:10.926 0.58
11:18:10.926 0.67
11:18:10.926 0.72
11:18:10.926 0.74
11:18:10.946 0.73
11:18:11.019 0.71
11:18:11.019 0.68
11:18:11.019 0.66
11:18:11.019 0.64
11:18:11.033 0.63
11:18:11.033 0.63
11:18:11.112 0.61
11:18:11.112 0.6
11:18:11.112 0.59
11:18:11.112 0.58
11:18:11.117 0.58
11:18:11.178 0.59
11:18:11.178 0.59
11:18:11.178 0.59
11:18:11.178 0.59
11:18:11.195 0.59
11:18:11.260 0.58
11:18:11.260 0.57
11:18:11.260 0.55
11:18:11.278 0.53
11:18:11.278 0.51
11:18:11.353 0.47
11:18:11.353 0.45
11:18:11.353 0.44
11:18:11.353 0.42
11:18:11.365 0.41
11:18:11.382 0.4
11:18:11.393 0.39
11:18:11.458 0.38
11:18:11.458 0.37
11:18:11.458 0.37
11:18:11.458 0.36
11:18:11.480 0.35
11:18:11.480 0.34
11:18:11.494 0.33
11:18:11.504 0.32
11:18:11.512 0.31
11:18:11.575 0.3
11:18:11.575 0.3
11:18:11.575 0.32
11:18:11.594 0.47
11:18:11.607 0.58
11:18:11.674 0.76
11:18:11.674 0.8
11:18:11.674 0.8
11:18:11.748 0.79
11:18:11.748 0.77
11:18:11.748 0.74
11:18:11.769 0.73
11:18:11.778 0.72
11:18:11.785 0.71
11:18:11.849 0.71
11:18:11.849 0.71
11:18:11.849 0.7
11:18:11.861 0.69
11:18:11.869 0.68
11:18:11.887 0.67
11:18:11.950 0.67
11:18:11.950 0.67
11:18:11.950 0.67
11:18:11.964 0.67
11:18:11.975 0.66
11:18:12.038 0.65
11:18:12.038 0.64
11:18:12.038 0.62
11:18:12.038 0.6
11:18:12.048 0.59
11:18:12.116 0.55
11:18:12.116 0.54
11:18:12.116 0.52
11:18:12.130 0.51
11:18:12.130 0.49
11:18:12.198 0.46
11:18:12.198 0.45
11:18:12.210 0.44
11:18:12.220 0.43
11:18:12.230 0.42
11:18:12.302 0.4
11:18:12.302 0.39
11:18:12.302 0.38
11:18:12.312 0.37
11:18:12.319 0.36
11:18:12.328 0.35
11:18:12.388 0.34
11:18:12.388 0.33
11:18:12.388 0.32
11:18:12.458 0.33
11:18:12.458 0.37
11:18:12.458 0.46
11:18:12.458 0.58
11:18:12.473 0.7
11:18:12.473 0.79
11:18:12.551 0.86
11:18:12.551 0.85
11:18:12.551 0.83
11:18:12.563 0.81
11:18:12.563 0.79
11:18:12.574 0.78
11:18:12.588 0.78
11:18:12.649 0.78
11:18:12.649 0.77
11:18:12.649 0.77
11:18:12.649 0.76
11:18:12.723 0.75
11:18:12.723 0.74
11:18:12.723 0.73
11:18:12.743 0.73
11:18:12.807 0.73
11:18:12.807 0.73
11:18:12.807 0.72
11:18:12.807 0.71
11:18:12.825 0.7
11:18:12.839 0.68
11:18:12.848 0.67
11:18:12.921 0.63
11:18:12.921 0.61
11:18:12.931 0.59
11:18:12.943 0.58
11:18:12.952 0.56
11:18:12.965 0.54
11:18:12.977 0.53
11:18:12.995 0.51
11:18:13.056 0.5
11:18:13.056 0.49
11:18:13.056 0.48
11:18:13.066 0.47
11:18:13.066 0.46
11:18:13.136 0.44
11:18:13.136 0.43
11:18:13.136 0.42
11:18:13.136 0.41
11:18:13.153 0.4
11:18:13.224 0.39
11:18:13.224 0.37
11:18:13.224 0.36
11:18:13.224 0.34
11:18:13.236 0.33
11:18:13.256 0.32
11:18:13.264 0.3
11:18:13.275 0.29
11:18:13.343 0.33
11:18:13.343 0.4
11:18:13.343 0.51
11:18:13.354 0.64
11:18:13.361 0.75
11:18:13.427 0.83
11:18:13.427 0.87
11:18:13.427 0.87
11:18:13.438 0.85
11:18:13.438 0.83
11:18:13.445 0.8
11:18:13.508 0.78
11:18:13.508 0.77
11:18:13.508 0.77
11:18:13.508 0.77
11:18:13.519 0.76
11:18:13.597 0.75
11:18:13.597 0.74
11:18:13.597 0.73
11:18:13.597 0.72
11:18:13.607 0.72
11:18:13.607 0.72
11:18:13.665 0.72
11:18:13.665 0.71
11:18:13.687 0.7
11:18:13.750 0.69
11:18:13.750 0.67
11:18:13.750 0.65
11:18:13.828 0.62
11:18:13.828 0.6
11:18:13.828 0.58
11:18:13.828 0.56
11:18:13.851 0.52
11:18:13.861 0.5
11:18:13.876 0.49
11:18:13.940 0.47
11:18:13.940 0.46
11:18:13.954 0.44
11:18:13.961 0.43
11:18:13.976 0.42
11:18:14.039 0.41
11:18:14.039 0.4
11:18:14.039 0.38
11:18:14.039 0.37
11:18:14.053 0.36
11:18:14.072 0.35
11:18:14.080 0.33
11:18:14.089 0.32
11:18:14.156 0.31
11:18:14.156 0.29
11:18:14.156 0.28
11:18:14.171 0.27
11:18:14.179 0.26
11:18:14.243 0.26
11:18:14.243 0.29
11:18:14.243 0.35
11:18:14.243 0.46
11:18:14.255 0.59
11:18:14.322 0.7
11:18:14.322 0.77
11:18:14.322 0.81
11:18:14.322 0.81
11:18:14.333 0.79
11:18:14.343 0.76
11:18:14.351 0.73
11:18:14.413 0.71
11:18:14.413 0.7
11:18:14.413 0.69
11:18:14.413 0.68
11:18:14.487 0.66
11:18:14.487 0.65
11:18:14.487 0.64
11:18:14.504 0.63
11:18:14.513 0.63
11:18:14.582 0.63
11:18:14.582 0.63
11:18:14.582 0.62
11:18:14.582 0.61
11:18:14.592 0.59
11:18:14.663 0.57
11:18:14.663 0.56
11:18:14.663 0.54
11:18:14.663 0.52
11:18:14.681 0.51
11:18:14.745 0.49
11:18:14.745 0.47
11:18:14.757 0.46
11:18:14.771 0.44
11:18:14.778 0.42
11:18:14.842 0.41
11:18:14.842 0.39
11:18:14.842 0.38
11:18:14.858 0.37
11:18:14.858 0.36
11:18:14.922 0.35
11:18:14.922 0.34
11:18:14.922 0.33
11:18:14.933 0.32
11:18:14.941 0.31
11:18:15.006 0.3
11:18:15.006 0.28
11:18:15.006 0.27
11:18:15.006 0.26
11:18:15.021 0.25
11:18:15.082 0.24
11:18:15.082 0.23
11:18:15.082 0.23
11:18:15.082 0.26
11:18:15.149 0.43
11:18:15.149 0.55
11:18:15.149 0.66
11:18:15.219 0.73
11:18:15.219 0.76
11:18:15.219 0.76
11:18:15.219 0.74
11:18:15.228 0.71
11:18:15.242 0.69
11:18:15.253 0.67
11:18:15.325 0.65
11:18:15.325 0.64
11:18:15.325 0.63
11:18:15.325 0.62
11:18:15.345 0.61
11:18:15.345 0.6
11:18:15.414 0.59
11:18:15.414 0.59
11:18:15.414 0.6
11:18:15.414 0.61
11:18:15.422 0.61
11:18:15.481 0.61
11:18:15.481 0.6
11:18:15.481 0.59
11:18:15.492 0.58
11:18:15.492 0.56
11:18:15.559 0.54
11:18:15.559 0.52
11:18:15.559 0.51
11:18:15.559 0.49
11:18:15.572 0.47
11:18:15.636 0.46
11:18:15.636 0.44
11:18:15.636 0.43
11:18:15.636 0.41
11:18:15.645 0.4
11:18:15.653 0.39
11:18:15.751 0.39
11:18:15.751 0.38
11:18:15.751 0.37
11:18:15.768 0.36
11:18:15.776 0.35
11:18:15.843 0.34
11:18:15.843 0.33
11:18:15.843 0.32
11:18:15.843 0.31
11:18:15.855 0.3
11:18:15.918 0.31
11:18:15.918 0.35
11:18:15.918 0.42
11:18:15.936 0.51
11:18:15.948 0.62
11:18:15.958 0.7
11:18:16.026 0.76
11:18:16.026 0.77
11:18:16.026 0.77
11:18:16.026 0.74
11:18:16.036 0.72
11:18:16.098 0.69
11:18:16.098 0.67
11:18:16.098 0.66
11:18:16.098 0.65
11:18:16.111 0.64
11:18:16.173 0.62
11:18:16.173 0.61
11:18:16.173 0.6
11:18:16.185 0.6
11:18:16.194 0.6
11:18:16.269 0.61
11:18:16.269 0.61
11:18:16.269 0.6
11:18:16.280 0.59
11:18:16.289 0.58
11:18:16.299 0.56
11:18:16.306 0.54
11:18:16.369 0.52
11:18:16.369 0.5
11:18:16.369 0.49
11:18:16.382 0.47
11:18:16.447 0.45
11:18:16.447 0.44
11:18:16.447 0.42
11:18:16.447 0.41
11:18:16.471 0.4
11:18:16.471 0.39
11:18:16.479 0.38
11:18:16.487 0.37
11:18:16.503 0.36
11:18:16.515 0.35
11:18:16.581 0.34
11:18:16.581 0.33
11:18:16.581 0.32
11:18:16.581 0.32
11:18:16.603 0.34
11:18:16.666 0.4
11:18:16.666 0.5
11:18:16.666 0.6
11:18:16.676 0.7
11:18:16.745 0.76
11:18:16.745 0.79
11:18:16.745 0.79
11:18:16.824 0.77
11:18:16.824 0.75
11:18:16.824 0.73
11:18:16.824 0.71
11:18:16.834 0.71
11:18:16.906 0.7
11:18:16.906 0.69
11:18:16.906 0.68
11:18:16.906 0.67
11:18:16.983 0.65
11:18:16.983 0.65
11:18:16.983 0.64
11:18:16.983 0.64
11:18:16.997 0.64
11:18:17.012 0.64
11:18:17.019 0.63
11:18:17.077 0.61
11:18:17.077 0.6
11:18:17.077 0.58
11:18:17.089 0.57
11:18:17.152 0.55
11:18:17.152 0.53
11:18:17.152 0.51
11:18:17.152 0.5
11:18:17.171 0.48
11:18:17.236 0.47
11:18:17.236 0.45
11:18:17.236 0.44
11:18:17.236 0.42
11:18:17.250 0.41
11:18:17.257 0.41
11:18:17.326 0.39
11:18:17.326 0.38
11:18:17.326 0.37
11:18:17.338 0.36
11:18:17.346 0.34
11:18:17.354 0.33
11:18:17.426 0.32
11:18:17.426 0.32
11:18:17.426 0.34
11:18:17.426 0.4
11:18:17.439 0.49
11:18:17.447 0.59
11:18:17.512 0.69
11:18:17.512 0.75
11:18:17.512 0.78
11:18:17.512 0.78
11:18:17.525 0.76
11:18:17.585 0.74
11:18:17.585 0.72
11:18:17.585 0.71
11:18:17.598 0.7
11:18:17.598 0.7
11:18:17.666 0.7
11:18:17.666 0.69
11:18:17.666 0.68
11:18:17.666 0.67
11:18:17.675 0.65
11:18:17.742 0.65
11:18:17.742 0.64
11:18:17.754 0.64
11:18:17.821 0.64
11:18:17.821 0.63
11:18:17.821 0.62
11:18:17.832 0.59
11:18:17.905 0.58
11:18:17.905 0.56
11:18:17.905 0.54
11:18:17.916 0.53
11:18:17.916 0.51
11:18:17.982 0.49
11:18:17.982 0.47
11:18:17.993 0.46
11:18:18.004 0.44
11:18:18.014 0.42
11:18:18.022 0.41
11:18:18.086 0.4
11:18:18.086 0.39
11:18:18.086 0.38
11:18:18.101 0.37
11:18:18.101 0.36
11:18:18.109 0.34
11:18:18.177 0.33
11:18:18.177 0.32
11:18:18.177 0.31
11:18:18.189 0.29
11:18:18.204 0.28
11:18:18.213 0.26
11:18:18.274 0.25
11:18:18.274 0.25
11:18:18.274 0.28
11:18:18.287 0.43
11:18:18.349 0.53
11:18:18.349 0.62
11:18:18.349 0.67
11:18:18.349 0.69
11:18:18.365 0.69
11:18:18.374 0.67
11:18:18.440 0.65
11:18:18.440 0.63
11:18:18.440 0.62
11:18:18.440 0.61
11:18:18.508 0.61
11:18:18.508 0.61
11:18:18.508 0.6
11:18:18.508 0.59
11:18:18.517 0.57
11:18:18.522 0.56
11:18:18.585 0.56
11:18:18.585 0.56
11:18:18.585 0.56
11:18:18.602 0.55
11:18:18.602 0.55
11:18:18.665 0.54
11:18:18.665 0.52
11:18:18.665 0.51
11:18:18.665 0.49
11:18:18.673 0.47
11:18:18.742 0.45
11:18:18.742 0.44
11:18:18.742 0.42
11:18:18.819 0.39
11:18:18.819 0.37
11:18:18.832 0.35
11:18:18.895 0.34
11:18:18.895 0.33
11:18:18.895 0.31
11:18:18.906 0.3
11:18:18.914 0.29
11:18:18.992 0.27
11:18:18.992 0.26
11:18:18.992 0.25
11:18:19.008 0.24
11:18:19.008 0.22
11:18:19.017 0.21
11:18:19.083 0.2
11:18:19.083 0.18
11:18:19.083 0.17
11:18:19.083 0.16
11:18:19.100 0.15
11:18:19.107 0.16
11:18:19.172 0.28
11:18:19.172 0.38
11:18:19.182 0.48
11:18:19.250 0.58
11:18:19.250 0.59
11:18:19.250 0.57
11:18:19.260 0.55
11:18:19.322 0.53
11:18:19.322 0.52
11:18:19.322 0.51
11:18:19.338 0.51
11:18:19.398 0.5
11:18:19.398 0.49
11:18:19.398 0.48
11:18:19.410 0.47
11:18:19.478 0.46
11:18:19.478 0.46
11:18:19.478 0.46
11:18:19.552 0.45
11:18:19.552 0.44
11:18:19.552 0.43
11:18:19.552 0.42
11:18:19.620 0.4
11:18:19.620 0.39
11:18:19.620 0.38
11:18:19.635 0.34
11:18:19.698 0.33
11:18:19.698 0.32
11:18:19.698 0.3
11:18:19.712 0.29
11:18:19.720 0.28
11:18:19.786 0.26
11:18:19.786 0.26
11:18:19.796 0.25
11:18:19.804 0.24
11:18:19.874 0.23
11:18:19.874 0.22
11:18:19.885 0.21
11:18:19.952 0.19
11:18:19.952 0.18
11:18:19.952 0.17
11:18:19.963 0.16
11:18:20.036 0.32
11:18:20.043 0.41
11:18:20.102 0.54
11:18:20.102 0.56
11:18:20.182 0.54
11:18:20.182 0.51
11:18:20.182 0.48
11:18:20.195 0.47
11:18:20.195 0.47
11:18:20.269 0.46
11:18:20.269 0.45
11:18:20.269 0.44
11:18:20.269 0.43
11:18:20.279 0.42
11:18:20.283 0.42
11:18:20.343 0.43
11:18:20.343 0.43
11:18:20.343 0.43
11:18:20.343 0.43
11:18:20.413 0.42
11:18:20.413 0.41
11:18:20.413 0.39
11:18:20.413 0.38
11:18:20.424 0.36
11:18:20.432 0.35
11:18:20.447 0.33
11:18:20.510 0.32
11:18:20.510 0.3
11:18:20.510 0.29
11:18:20.510 0.28
11:18:20.514 0.27
11:18:20.570 0.26
11:18:20.570 0.25
11:18:20.570 0.24
11:18:20.579 0.23
11:18:20.643 0.23
11:18:20.643 0.22
11:18:20.643 0.21
11:18:20.643 0.2
11:18:20.659 0.19
11:18:20.668 0.18
11:18:20.733 0.18
11:18:20.733 0.18
11:18:20.747 0.27
11:18:20.808 0.36
11:18:20.808 0.45
11:18:20.818 0.53
11:18:20.830 0.57
11:18:20.902 0.58
11:18:20.902 0.57
11:18:20.902 0.55
11:18:20.973 0.51
11:18:20.973 0.5
11:18:20.973 0.5
11:18:20.973 0.5
11:18:21.040 0.49
11:18:21.040 0.48
11:18:21.040 0.47
11:18:21.049 0.46
11:18:21.059 0.45
11:18:21.067 0.44
11:18:21.090 0.45
11:18:21.098 0.45
11:18:21.161 0.44
11:18:21.161 0.44
11:18:21.161 0.43
11:18:21.161 0.42
11:18:21.169 0.4
11:18:21.243 0.39
11:18:21.243 0.37
11:18:21.243 0.36
11:18:21.254 0.34
11:18:21.350 0.31
11:18:21.350 0.3
11:18:21.350 0.29
11:18:21.350 0.27
11:18:21.365 0.26
11:18:21.365 0.25
11:18:21.365 0.25
11:18:21.377 0.24
11:18:21.385 0.23
11:18:21.393 0.22
11:18:21.457 0.22
11:18:21.457 0.21
11:18:21.457 0.2
11:18:21.468 0.19
11:18:21.479 0.18
11:18:21.489 0.17
11:18:21.497 0.16
11:18:21.564 0.15
11:18:21.564 0.16
11:18:21.564 0.2
11:18:21.564 0.28
11:18:21.575 0.38
11:18:21.638 0.48
11:18:21.638 0.56
11:18:21.638 0.6
11:18:21.638 0.61
11:18:21.648 0.59
11:18:21.712 0.56
11:18:21.712 0.54
11:18:21.712 0.52
11:18:21.712 0.51
11:18:21.725 0.51
11:18:21.725 0.51
11:18:21.791 0.51
11:18:21.791 0.5
11:18:21.802 0.49
11:18:21.802 0.47
11:18:21.872 0.46
11:18:21.872 0.46
11:18:21.872 0.46
11:18:21.900 0.46
11:18:21.912 0.45
11:18:21.975 0.44
11:18:21.975 0.43
11:18:21.975 0.42
11:18:21.975 0.4
11:18:22.051 0.39
11:18:22.051 0.38
11:18:22.051 0.36
11:18:22.051 0.35
11:18:22.063 0.34
11:18:22.072 0.32
11:18:22.090 0.3
11:18:22.098 0.29
11:18:22.161 0.28
11:18:22.161 0.27
11:18:22.161 0.26
11:18:22.174 0.25
11:18:22.188 0.25
11:18:22.252 0.24
11:18:22.252 0.23
11:18:22.252 0.22
11:18:22.252 0.21
11:18:22.265 0.2
11:18:22.275 0.19
11:18:22.340 0.18
11:18:22.340 0.16
11:18:22.340 0.15
11:18:22.340 0.14
11:18:22.357 0.13
11:18:22.367 0.13
11:18:22.377 0.14
11:18:22.390 0.18
11:18:22.399 0.26
11:18:22.469 0.37
11:18:22.469 0.47
11:18:22.469 0.55
11:18:22.469 0.58
11:18:22.483 0.59
11:18:22.491 0.57
11:18:22.500 0.54
11:18:22.571 0.52
11:18:22.571 0.5
11:18:22.571 0.49
11:18:22.571 0.48
11:18:22.580 0.48
11:18:22.590 0.47
11:18:22.602 0.46
11:18:22.665 0.45
11:18:22.665 0.44
11:18:22.665 0.43
11:18:22.665 0.43
11:18:22.674 0.43
11:18:22.743 0.43
11:18:22.743 0.43
11:18:22.743 0.42
11:18:22.763 0.41
11:18:22.825 0.39
11:18:22.825 0.38
11:18:22.825 0.36
11:18:22.906 0.33
11:18:22.906 0.32
11:18:22.906 0.3
11:18:22.906 0.29
11:18:22.916 0.27
11:18:22.925 0.26
11:18:22.932 0.25
11:18:23.001 0.23
11:18:23.001 0.22
11:18:23.017 0.22
11:18:23.027 0.21
11:18:23.033 0.2
11:18:23.092 0.19
11:18:23.092 0.18
11:18:23.092 0.17
11:18:23.103 0.16
11:18:23.103 0.15
11:18:23.173 0.15
11:18:23.173 0.14
11:18:23.173 0.13
11:18:23.182 0.12
11:18:23.195 0.11
11:18:23.260 0.09
11:18:23.260 0.08
11:18:23.260 0.08
11:18:23.274 0.09
11:18:23.274 0.13
11:18:23.282 0.21
11:18:23.293 0.32
11:18:23.310 0.43
11:18:23.372 0.52
11:18:23.372 0.56
11:18:23.372 0.57
11:18:23.372 0.56
11:18:23.382 0.53
11:18:23.470 0.5
11:18:23.470 0.48
11:18:23.470 0.46
11:18:23.470 0.45
11:18:23.481 0.44
11:18:23.481 0.44
11:18:23.492 0.43
11:18:23.558 0.41
11:18:23.558 0.4
11:18:23.558 0.39
11:18:23.558 0.39
11:18:23.572 0.4
11:18:23.572 0.4
11:18:23.588 0.41
11:18:23.657 0.4
11:18:23.657 0.39
11:18:23.657 0.38
11:18:23.657 0.37
11:18:23.672 0.35
11:18:23.681 0.33
11:18:23.691 0.32
11:18:23.746 0.3
11:18:23.746 0.29
11:18:23.808 0.26
11:18:23.808 0.25
11:18:23.819 0.24
11:18:23.836 0.22
11:18:23.898 0.22
11:18:23.898 0.21
11:18:23.898 0.2
11:18:23.918 0.2
11:18:23.918 0.19
11:18:23.927 0.19
11:18:23.942 0.18
11:18:24.004 0.17
11:18:24.004 0.17
11:18:24.015 0.16
11:18:24.030 0.15
11:18:24.030 0.14
11:18:24.098 0.12
11:18:24.098 0.12
11:18:24.098 0.13
11:18:24.107 0.18
11:18:24.164 0.26
11:18:24.164 0.37
11:18:24.178 0.48
11:18:24.187 0.56
11:18:24.196 0.6
11:18:24.205 0.6
11:18:24.270 0.58
11:18:24.270 0.56
11:18:24.270 0.53
11:18:24.270 0.5
11:18:24.287 0.48
11:18:24.295 0.47
11:18:24.361 0.46
11:18:24.361 0.44
11:18:24.361 0.43
11:18:24.361 0.41
11:18:24.373 0.41
11:18:24.380 0.41
11:18:24.450 0.41
11:18:24.450 0.42
11:18:24.450 0.42
11:18:24.450 0.42
11:18:24.460 0.42
11:18:24.555 0.41
11:18:24.555 0.39
11:18:24.555 0.38
11:18:24.555 0.36
11:18:24.573 0.34
11:18:24.573 0.33
11:18:24.573 0.31
11:18:24.586 0.29
11:18:24.594 0.28
11:18:24.656 0.26
11:18:24.656 0.25
11:18:24.656 0.24
11:18:24.671 0.23
11:18:24.685 0.22
11:18:24.685 0.21
11:18:24.751 0.2
11:18:24.751 0.2
11:18:24.838 0.18
11:18:24.838 0.18
11:18:24.838 0.17
11:18:24.853 0.16
11:18:24.859 0.16
11:18:24.924 0.18
11:18:24.924 0.23
11:18:24.924 0.32
11:18:24.937 0.44
11:18:24.942 0.54
11:18:24.952 0.62
11:18:25.021 0.65
11:18:25.021 0.63
11:18:25.097 0.58
11:18:25.097 0.56
11:18:25.097 0.54
11:18:25.113 0.53
11:18:25.113 0.53
11:18:25.176 0.52
11:18:25.176 0.5
11:18:25.176 0.49
11:18:25.188 0.48
11:18:25.207 0.48
11:18:25.207 0.48
11:18:25.272 0.49
11:18:25.272 0.49
11:18:25.272 0.49
11:18:25.282 0.48
11:18:25.289 0.47
11:18:25.299 0.45
11:18:25.310 0.44
11:18:25.382 0.4
11:18:25.382 0.39
11:18:25.382 0.37
11:18:25.391 0.35
11:18:25.394 0.33
11:18:25.460 0.32
11:18:25.460 0.31
11:18:25.460 0.3
11:18:25.460 0.29
11:18:25.474 0.28
11:18:25.486 0.27
11:18:25.550 0.26
11:18:25.550 0.25
11:18:25.550 0.25
11:18:25.550 0.24
11:18:25.569 0.23
11:18:25.575 0.22
11:18:25.638 0.21
11:18:25.638 0.2
11:18:25.638 0.19
11:18:25.638 0.18
11:18:25.650 0.17
11:18:25.718 0.19
11:18:25.718 0.24
11:18:25.718 0.33
11:18:25.723 0.45
11:18:25.782 0.57
11:18:25.782 0.66
11:18:25.791 0.71
11:18:25.799 0.72
11:18:25.878 0.7
11:18:25.878 0.67
11:18:25.878 0.64
11:18:25.891 0.62
11:18:25.960 0.6
11:18:25.960 0.59
11:18:25.960 0.59
11:18:25.960 0.58
11:18:25.972 0.57
11:18:25.972 0.56
11:18:26.044 0.55
11:18:26.044 0.54
11:18:26.044 0.54
11:18:26.055 0.55
11:18:26.084 0.55
11:18:26.093 0.54
11:18:26.155 0.53
11:18:26.155 0.52
11:18:26.155 0.51
11:18:26.165 0.49
11:18:26.222 0.48
11:18:26.222 0.46
11:18:26.222 0.44
11:18:26.228 0.42
11:18:26.288 0.4
11:18:26.288 0.39
11:18:26.288 0.37
11:18:26.288 0.35
11:18:26.299 0.34
11:18:26.368 0.32
11:18:26.368 0.31
11:18:26.368 0.3
11:18:26.384 0.29
11:18:26.392 0.29
11:18:26.399 0.28
11:18:26.471 0.27
11:18:26.471 0.26
11:18:26.471 0.25
11:18:26.471 0.24
11:18:26.483 0.23
11:18:26.491 0.22
11:18:26.557 0.21
11:18:26.557 0.2
11:18:26.557 0.2
11:18:26.557 0.23
11:18:26.570 0.29
11:18:26.648 0.4
11:18:26.648 0.52
11:18:26.648 0.64
11:18:26.648 0.71
11:18:26.664 0.74
11:18:26.664 0.73
11:18:26.671 0.71
11:18:26.676 0.68
11:18:26.740 0.65
11:18:26.740 0.62
11:18:26.740 0.61
11:18:26.740 0.6
11:18:26.778 0.59
11:18:26.840 0.58
11:18:26.840 0.57
11:18:26.855 0.55
11:18:26.930 0.54
11:18:26.930 0.54
11:18:26.930 0.54
11:18:26.930 0.54
11:18:26.941 0.54
11:18:26.949 0.53
11:18:27.013 0.51
11:18:27.013 0.5
11:18:27.013 0.48
11:18:27.027 0.47
11:18:27.092 0.45
11:18:27.092 0.43
11:18:27.092 0.41
11:18:27.106 0.4
11:18:27.182 0.37
11:18:27.182 0.35
11:18:27.182 0.34
11:18:27.191 0.33
11:18:27.199 0.32
11:18:27.268 0.31
11:18:27.268 0.3
11:18:27.268 0.3
11:18:27.268 0.29
11:18:27.286 0.28
11:18:27.296 0.26
11:18:27.356 0.26
11:18:27.356 0.25
11:18:27.356 0.24
11:18:27.369 0.23
11:18:27.374 0.22
11:18:27.442 0.21
11:18:27.442 0.2
11:18:27.442 0.22
11:18:27.442 0.26
11:18:27.454 0.35
11:18:27.525 0.58
11:18:27.525 0.66
11:18:27.525 0.7
11:18:27.539 0.71
11:18:27.539 0.69
11:18:27.554 0.66
11:18:27.566 0.63
11:18:27.632 0.6
11:18:27.632 0.58
11:18:27.632 0.57
11:18:27.632 0.55
11:18:27.643 0.54
11:18:27.721 0.52
11:18:27.721 0.51
11:18:27.721 0.5
11:18:27.721 0.5
11:18:27.739 0.51
11:18:27.739 0.51
11:18:27.753 0.52
11:18:27.760 0.52
11:18:27.832 0.51
11:18:27.832 0.5
11:18:27.832 0.49
11:18:27.854 0.47
11:18:27.921 0.45
11:18:27.921 0.43
11:18:27.921 0.42
11:18:27.921 0.4
11:18:27.934 0.38
11:18:27.942 0.37
11:18:28.003 0.35
11:18:28.003 0.34
11:18:28.003 0.32
11:18:28.088 0.3
11:18:28.088 0.29
11:18:28.088 0.29
11:18:28.088 0.28
11:18:28.106 0.28
11:18:28.170 0.27
11:18:28.170 0.26
11:18:28.170 0.25
11:18:28.184 0.24
11:18:28.194 0.23
11:18:28.208 0.22
11:18:28.220 0.23
11:18:28.284 0.27
11:18:28.284 0.34
11:18:28.284 0.44
11:18:28.296 0.55
11:18:28.296 0.64
11:18:28.313 0.69
11:18:28.321 0.7
11:18:28.332 0.68
11:18:28.402 0.66
11:18:28.402 0.63
11:18:28.402 0.6
11:18:28.402 0.58
11:18:28.413 0.57
11:18:28.422 0.56
11:18:28.446 0.55
11:18:28.456 0.53
11:18:28.466 0.52
11:18:28.533 0.51
11:18:28.533 0.5
11:18:28.533 0.5
11:18:28.533 0.5
11:18:28.544 0.51
11:18:28.551 0.51
11:18:28.615 0.51
11:18:28.615 0.49
11:18:28.615 0.48
11:18:28.615 0.46
11:18:28.626 0.44
11:18:28.689 0.43
11:18:28.689 0.41
11:18:28.689 0.39
11:18:28.689 0.38
11:18:28.756 0.36
11:18:28.756 0.34
11:18:28.756 0.33
11:18:28.756 0.32
11:18:28.781 0.31
11:18:28.846 0.29
11:18:28.846 0.28
11:18:28.908 0.27
11:18:28.908 0.27
11:18:28.908 0.26
11:18:28.919 0.25
11:18:28.929 0.24
11:18:28.937 0.23
11:18:29.005 0.22
11:18:29.005 0.21
11:18:29.005 0.2
11:18:29.005 0.19
11:18:29.080 0.2
11:18:29.080 0.22
11:18:29.080 0.29
11:18:29.080 0.39
11:18:29.091 0.51
11:18:29.099 0.62
11:18:29.159 0.69
11:18:29.159 0.72
11:18:29.175 0.69
11:18:29.240 0.66
11:18:29.240 0.64
11:18:29.240 0.62
11:18:29.240 0.6
11:18:29.252 0.6
11:18:29.320 0.59
11:18:29.320 0.58
11:18:29.320 0.56
11:18:29.334 0.55
11:18:29.342 0.55
11:18:29.409 0.54
11:18:29.409 0.55
11:18:29.409 0.55
11:18:29.419 0.54
11:18:29.484 0.54
11:18:29.484 0.53
11:18:29.484 0.51
11:18:29.484 0.5
11:18:29.501 0.48
11:18:29.513 0.46
11:18:29.582 0.45
11:18:29.582 0.43
11:18:29.582 0.41
11:18:29.582 0.4
11:18:29.598 0.38
11:18:29.663 0.37
11:18:29.663 0.36
11:18:29.663 0.35
11:18:29.674 0.34
11:18:29.674 0.33
11:18:29.741 0.32
11:18:29.741 0.31
11:18:29.741 0.3
11:18:29.752 0.29
11:18:29.814 0.29
11:18:29.814 0.28
11:18:29.814 0.27
11:18:29.825 0.26
11:18:29.833 0.24
11:18:29.920 0.23
11:18:29.920 0.22
11:18:29.920 0.21
11:18:29.934 0.2
11:18:29.944 0.21
11:18:30.014 0.33
11:18:30.014 0.44
11:18:30.014 0.56
11:18:30.026 0.66
11:18:30.034 0.72
11:18:30.097 0.74
11:18:30.097 0.73
11:18:30.108 0.7
11:18:30.117 0.68
11:18:30.133 0.64
11:18:30.195 0.63
11:18:30.195 0.62
11:18:30.195 0.62
11:18:30.271 0.6
11:18:30.271 0.59
11:18:30.271 0.58
11:18:30.284 0.58
11:18:30.304 0.58
11:18:30.315 0.58
11:18:30.326 0.57
11:18:30.392 0.56
11:18:30.392 0.55
11:18:30.392 0.54
11:18:30.392 0.52
11:18:30.403 0.5
11:18:30.411 0.49
11:18:30.472 0.47
11:18:30.472 0.45
11:18:30.472 0.43
11:18:30.483 0.42
11:18:30.493 0.4
11:18:30.502 0.39
11:18:30.570 0.37
11:18:30.570 0.36
11:18:30.570 0.35
11:18:30.570 0.34
11:18:30.580 0.33
11:18:30.646 0.32
11:18:30.646 0.31
11:18:30.646 0.29
11:18:30.646 0.28
11:18:30.655 0.27
11:18:30.663 0.26
11:18:30.729 0.25
11:18:30.729 0.24
11:18:30.729 0.23
11:18:30.739 0.21
11:18:30.803 0.19
11:18:30.803 0.18
11:18:30.808 0.17
11:18:30.870 0.2
11:18:30.870 0.27
11:18:30.884 0.38
11:18:30.884 0.5
11:18:30.895 0.61
11:18:30.960 0.68
11:18:30.960 0.71
11:18:30.974 0.71
11:18:30.981 0.69
11:18:31.047 0.66
11:18:31.047 0.64
11:18:31.047 0.62
11:18:31.047 0.61
11:18:31.062 0.6
11:18:31.069 0.6
11:18:31.144 0.6
11:18:31.144 0.58
11:18:31.144 0.58
11:18:31.158 0.57
11:18:31.166 0.58
11:18:31.174 0.58
11:18:31.243 0.59
11:18:31.243 0.59
11:18:31.243 0.59
11:18:31.262 0.58
11:18:31.262 0.57
11:18:31.267 0.56
11:18:31.332 0.54
11:18:31.332 0.52
11:18:31.332 0.5
11:18:31.332 0.47
11:18:31.345 0.45
11:18:31.410 0.44
11:18:31.410 0.42
11:18:31.410 0.4
11:18:31.410 0.39
11:18:31.423 0.37
11:18:31.433 0.36
11:18:31.447 0.35
11:18:31.458 0.34
11:18:31.465 0.33
11:18:31.530 0.32
11:18:31.530 0.31
11:18:31.530 0.3
11:18:31.543 0.28
11:18:31.608 0.27
11:18:31.608 0.26
11:18:31.608 0.24
11:18:31.608 0.23
11:18:31.619 0.22
11:18:31.682 0.21
11:18:31.682 0.2
11:18:31.682 0.19
11:18:31.682 0.17
11:18:31.693 0.16
11:18:31.701 0.15
11:18:31.710 0.16
11:18:31.776 0.2
11:18:31.776 0.28
11:18:31.776 0.39
11:18:31.787 0.53
11:18:31.787 0.64
11:18:31.796 0.71
11:18:31.859 0.75
11:18:31.859 0.75
11:18:31.932 0.7
11:18:31.932 0.68
11:18:31.932 0.66
11:18:31.997 0.64
11:18:31.997 0.63
11:18:31.997 0.63
11:18:32.007 0.61
11:18:32.015 0.61
11:18:32.074 0.6
11:18:32.074 0.6
11:18:32.083 0.61
11:18:32.147 0.62
11:18:32.147 0.62
11:18:32.147 0.62
11:18:32.147 0.62
11:18:32.161 0.61
11:18:32.233 0.59
11:18:32.233 0.57
11:18:32.233 0.55
11:18:32.243 0.54
11:18:32.243 0.52
11:18:32.311 0.5
11:18:32.311 0.48
11:18:32.311 0.46
11:18:32.311 0.45
11:18:32.320 0.43
11:18:32.327 0.42
11:18:32.334 0.4
11:18:32.396 0.39
11:18:32.396 0.38
11:18:32.396 0.37
11:18:32.407 0.35
11:18:32.417 0.34
11:18:32.427 0.33
11:18:32.435 0.32
11:18:32.505 0.31
11:18:32.505 0.3
11:18:32.505 0.29
11:18:32.505 0.28
11:18:32.515 0.26
11:18:32.523 0.25
11:18:32.584 0.24
11:18:32.584 0.23
11:18:32.584 0.21
11:18:32.594 0.2
11:18:32.600 0.19
11:18:32.609 0.19
11:18:32.675 0.2
11:18:32.675 0.25
11:18:32.675 0.34
11:18:32.688 0.48
11:18:32.688 0.61
11:18:32.698 0.72
11:18:32.780 0.79
11:18:32.780 0.82
11:18:32.780 0.81
11:18:32.780 0.79
11:18:32.787 0.77
11:18:32.787 0.75
11:18:32.849 0.73
11:18:32.849 0.71
11:18:32.849 0.7
11:18:32.925 0.68
11:18:32.925 0.66
11:18:32.925 0.65
11:18:33.003 0.65
11:18:33.003 0.65
11:18:33.003 0.66
11:18:33.003 0.67
11:18:33.015 0.68
11:18:33.024 0.68
11:18:33.091 0.67
11:18:33.091 0.66
11:18:33.091 0.64
11:18:33.101 0.62
11:18:33.111 0.6
11:18:33.172 0.59
11:18:33.172 0.56
11:18:33.172 0.54
11:18:33.247 0.51
11:18:33.247 0.49
11:18:33.247 0.47
11:18:33.247 0.46
11:18:33.259 0.45
11:18:33.331 0.43
11:18:33.331 0.42
11:18:33.331 0.42
11:18:33.331 0.41
11:18:33.343 0.4
11:18:33.343 0.39
11:18:33.411 0.38
11:18:33.411 0.37
11:18:33.411 0.36
11:18:33.411 0.35
11:18:33.423 0.34
11:18:33.432 0.32
11:18:33.501 0.31
11:18:33.501 0.3
11:18:33.501 0.28
11:18:33.501 0.28
11:18:33.572 0.32
11:18:33.572 0.39
11:18:33.572 0.51
11:18:33.572 0.65
11:18:33.583 0.77
11:18:33.591 0.85
11:18:33.598 0.89
11:18:33.665 0.89
11:18:33.665 0.87
11:18:33.665 0.85
11:18:33.665 0.82
11:18:33.685 0.8
11:18:33.746 0.77
11:18:33.746 0.75
11:18:33.746 0.74
11:18:33.746 0.72
11:18:33.760 0.7
11:18:33.770 0.69
11:18:33.779 0.69
11:18:33.839 0.69
11:18:33.848 0.7
11:18:33.856 0.71
11:18:33.923 0.72
11:18:33.923 0.72
11:18:33.923 0.72
11:18:33.948 0.69
11:18:34.009 0.67
11:18:34.009 0.65
11:18:34.009 0.62
11:18:34.020 0.6
11:18:34.027 0.58
11:18:34.038 0.56
11:18:34.098 0.54
11:18:34.098 0.52
11:18:34.112 0.5
11:18:34.125 0.48
11:18:34.189 0.47
11:18:34.189 0.45
11:18:34.189 0.44
11:18:34.210 0.42
11:18:34.218 0.42
11:18:34.281 0.41
11:18:34.281 0.4
11:18:34.281 0.39
11:18:34.292 0.38
11:18:34.298 0.36
11:18:34.366 0.34
11:18:34.366 0.35
11:18:34.366 0.39
11:18:34.381 0.47
11:18:34.443 0.72
11:18:34.443 0.84
11:18:34.443 0.93
11:18:34.455 0.97
11:18:34.455 0.98
11:18:34.519 0.97
11:18:34.519 0.94
11:18:34.519 0.92
11:18:34.519 0.9
11:18:34.530 0.88
11:18:34.542 0.87
11:18:34.604 0.85
11:18:34.604 0.85
11:18:34.604 0.83
11:18:34.620 0.8
11:18:34.696 0.8
11:18:34.696 0.81
11:18:34.696 0.81
11:18:34.696 0.81
11:18:34.707 0.81
11:18:34.768 0.8
11:18:34.768 0.78
11:18:34.768 0.76
11:18:34.768 0.74
11:18:34.842 0.69
11:18:34.842 0.67
11:18:34.859 0.64
11:18:34.859 0.62
11:18:34.876 0.6
11:18:34.944 0.58
11:18:34.944 0.56
11:18:34.944 0.54
11:18:34.954 0.53
11:18:35.021 0.51
11:18:35.021 0.5
11:18:35.021 0.49
11:18:35.032 0.48
11:18:35.041 0.46
11:18:35.048 0.45
11:18:35.110 0.44
11:18:35.110 0.43
11:18:35.125 0.4
11:18:35.192 0.39
11:18:35.192 0.37
11:18:35.192 0.36
11:18:35.192 0.34
11:18:35.263 0.32
11:18:35.263 0.31
11:18:35.263 0.31
11:18:35.263 0.33
11:18:35.274 0.41
11:18:35.282 0.53
11:18:35.345 0.68
11:18:35.345 0.83
11:18:35.345 0.95
11:18:35.345 1.0
11:18:35.356 0.99
11:18:35.365 0.98
11:18:35.384 0.96
11:18:35.397 0.94
11:18:35.477 0.92
11:18:35.477 0.9
11:18:35.477 0.88
11:18:35.491 0.88
11:18:35.491 0.87
11:18:35.491 0.85
11:18:35.504 0.84
11:18:35.518 0.83
11:18:35.528 0.82
11:18:35.595 0.82
11:18:35.595 0.83
11:18:35.595 0.83
11:18:35.595 0.84
11:18:35.606 0.83
11:18:35.668 0.83
11:18:35.668 0.82
11:18:35.668 0.8
11:18:35.680 0.78
11:18:35.680 0.75
11:18:35.697 0.73
11:18:35.760 0.7
11:18:35.760 0.68
11:18:35.760 0.66
11:18:35.760 0.64
11:18:35.777 0.62
11:18:35.793 0.6
11:18:35.804 0.58
11:18:35.868 0.56
11:18:35.868 0.55
11:18:35.877 0.54
11:18:35.885 0.52
11:18:35.954 0.51
11:18:35.954 0.5
11:18:35.954 0.49
11:18:35.976 0.47
11:18:36.043 0.45
11:18:36.043 0.44
11:18:36.043 0.43
11:18:36.043 0.41
11:18:36.056 0.4
11:18:36.124 0.38
11:18:36.124 0.37
11:18:36.137 0.35
11:18:36.148 0.34
11:18:36.215 0.33
11:18:36.215 0.35
11:18:36.215 0.41
11:18:36.215 0.51
11:18:36.229 0.65
11:18:36.296 0.8
11:18:36.296 0.91
11:18:36.296 0.99
11:18:36.296 0.97
11:18:36.307 0.97
11:18:36.316 0.96
11:18:36.323 0.93
11:18:36.388 0.91
11:18:36.388 0.89
11:18:36.388 0.88
11:18:36.402 0.87
11:18:36.402 0.86
11:18:36.472 0.85
11:18:36.472 0.83
11:18:36.472 0.82
11:18:36.472 0.82
11:18:36.483 0.82
11:18:36.556 0.82
11:18:36.556 0.83
11:18:36.556 0.83
11:18:36.556 0.83
11:18:36.571 0.82
11:18:36.571 0.81
11:18:36.582 0.79
11:18:36.590 0.77
11:18:36.657 0.75
11:18:36.657 0.73
11:18:36.657 0.71
11:18:36.657 0.69
11:18:36.677 0.67
11:18:36.689 0.65
11:18:36.698 0.63
11:18:36.767 0.61
11:18:36.767 0.59
11:18:36.767 0.58
11:18:36.767 0.56
11:18:36.777 0.55
11:18:36.852 0.52
11:18:36.852 0.51
11:18:36.852 0.5
11:18:36.868 0.49
11:18:36.876 0.48
11:18:36.941 0.47
11:18:36.941 0.45
11:18:36.955 0.44
11:18:36.964 0.43
11:18:37.026 0.41
11:18:37.026 0.4
11:18:37.026 0.38
11:18:37.026 0.37
11:18:37.045 0.36
11:18:37.108 0.37
11:18:37.108 0.42
11:18:37.108 0.52
11:18:37.117 0.64
11:18:37.173 0.77
11:18:37.173 0.88
11:18:37.173 0.95
11:18:37.239 0.98
11:18:37.239 0.98
11:18:37.239 0.97
11:18:37.239 0.94
11:18:37.251 0.92
11:18:37.259 0.9
11:18:37.321 0.88
11:18:37.321 0.86
11:18:37.321 0.85
11:18:37.334 0.84
11:18:37.334 0.82
11:18:37.404 0.81
11:18:37.404 0.8
11:18:37.404 0.8
11:18:37.404 0.81
11:18:37.415 0.82
11:18:37.423 0.82
11:18:37.483 0.82
11:18:37.483 0.81
11:18:37.483 0.79
11:18:37.483 0.77
11:18:37.547 0.75
11:18:37.547 0.73
11:18:37.547 0.71
11:18:37.547 0.69
11:18:37.561 0.66
11:18:37.585 0.62
11:18:37.649 0.61
11:18:37.649 0.59
11:18:37.649 0.58
11:18:37.649 0.56
11:18:37.660 0.54
11:18:37.674 0.53
11:18:37.688 0.51
11:18:37.705 0.5
11:18:37.771 0.48
11:18:37.771 0.47
11:18:37.771 0.46
11:18:37.771 0.45
11:18:37.783 0.43
11:18:37.846 0.42
11:18:37.846 0.41
11:18:37.846 0.4
11:18:37.846 0.38
11:18:37.917 0.37
11:18:37.917 0.36
11:18:37.917 0.35
11:18:37.932 0.35
11:18:37.998 0.39
11:18:37.998 0.46
11:18:37.998 0.57
11:18:37.998 0.7
11:18:38.016 0.81
11:18:38.026 0.89
11:18:38.039 0.93
11:18:38.046 0.93
11:18:38.112 0.92
11:18:38.112 0.89
11:18:38.112 0.86
11:18:38.180 0.84
11:18:38.180 0.82
11:18:38.180 0.81
11:18:38.189 0.8
11:18:38.196 0.79
11:18:38.261 0.77
11:18:38.261 0.76
11:18:38.261 0.75
11:18:38.275 0.75
11:18:38.275 0.76
11:18:38.284 0.76
11:18:38.358 0.76
11:18:38.358 0.75
11:18:38.358 0.74
11:18:38.369 0.72
11:18:38.369 0.7
11:18:38.436 0.68
11:18:38.436 0.66
11:18:38.436 0.64
11:18:38.436 0.62
11:18:38.506 0.6
11:18:38.506 0.58
11:18:38.506 0.56
11:18:38.506 0.55
11:18:38.519 0.53
11:18:38.534 0.51
11:18:38.597 0.5
11:18:38.597 0.48
11:18:38.597 0.47
11:18:38.597 0.46
11:18:38.613 0.45
11:18:38.685 0.44
11:18:38.685 0.42
11:18:38.685 0.41
11:18:38.697 0.4
11:18:38.697 0.39
11:18:38.761 0.38
11:18:38.761 0.36
11:18:38.761 0.35
11:18:38.761 0.34
11:18:38.772 0.32
11:18:38.772 0.32
11:18:38.833 0.34
11:18:38.833 0.4
11:18:38.842 0.5
11:18:38.851 0.62
11:18:38.913 0.75
11:18:38.913 0.84
11:18:38.913 0.9
11:18:38.988 0.92
11:18:38.988 0.91
11:18:38.988 0.89
11:18:38.988 0.87
11:18:39.065 0.83
11:18:39.065 0.81
11:18:39.065 0.8
11:18:39.075 0.79
11:18:39.083 0.78
11:18:39.163 0.76
11:18:39.163 0.76
11:18:39.163 0.76
11:18:39.172 0.76
11:18:39.235 0.77
11:18:39.235 0.77
11:18:39.235 0.77
11:18:39.235 0.77
11:18:39.253 0.76
11:18:39.261 0.74
11:18:39.323 0.72
11:18:39.323 0.7
11:18:39.323 0.68
11:18:39.333 0.67
11:18:39.399 0.65
11:18:39.399 0.63
11:18:39.399 0.61
11:18:39.399 0.59
11:18:39.416 0.57
11:18:39.478 0.56
11:18:39.478 0.54
11:18:39.478 0.53
11:18:39.487 0.52
11:18:39.500 0.51
11:18:39.568 0.5
11:18:39.568 0.49
11:18:39.568 0.48
11:18:39.568 0.47
11:18:39.582 0.46
11:18:39.644 0.45
11:18:39.644 0.44
11:18:39.644 0.42
11:18:39.654 0.41
11:18:39.665 0.4
11:18:39.682 0.39
11:18:39.746 0.37
11:18:39.746 0.36
11:18:39.746 0.35
11:18:39.746 0.37
11:18:39.762 0.43
11:18:39.770 0.53
11:18:39.843 0.65
11:18:39.843 0.77
11:18:39.843 0.87
11:18:39.843 0.92
11:18:39.852 0.95
11:18:39.863 0.94
11:18:39.931 0.9
11:18:39.931 0.88
11:18:39.942 0.86
11:18:40.017 0.84
11:18:40.017 0.83
11:18:40.032 0.82
11:18:40.106 0.79
11:18:40.106 0.79
11:18:40.106 0.8
11:18:40.115 0.81
11:18:40.183 0.8
11:18:40.183 0.79
11:18:40.194 0.78
11:18:40.260 0.76
11:18:40.260 0.74
11:18:40.260 0.72
11:18:40.273 0.7
11:18:40.273 0.68
11:18:40.282 0.66
11:18:40.349 0.65
11:18:40.349 0.63
11:18:40.349 0.61
11:18:40.349 0.6
11:18:40.360 0.59
11:18:40.367 0.58
11:18:40.434 0.56
11:18:40.434 0.55
11:18:40.434 0.53
11:18:40.434 0.52
11:18:40.446 0.51
11:18:40.454 0.5
11:18:40.515 0.49
11:18:40.515 0.47
11:18:40.515 0.46
11:18:40.525 0.45
11:18:40.536 0.44
11:18:40.557 0.42
11:18:40.565 0.41
11:18:40.573 0.4
11:18:40.646 0.38
11:18:40.646 0.38
11:18:40.646 0.4
11:18:40.646 0.46
11:18:40.731 0.81
11:18:40.731 0.95
11:18:40.731 0.97
11:18:40.808 0.95
11:18:40.808 0.93
11:18:40.808 0.89
11:18:40.814 0.88
11:18:40.873 0.87
11:18:40.873 0.86
11:18:40.873 0.86
11:18:40.884 0.83
11:18:40.892 0.83
11:18:40.955 0.82
11:18:40.968 0.84
11:18:40.978 0.84
11:18:41.054 0.84
11:18:41.054 0.83
11:18:41.076 0.82
11:18:41.076 0.81
11:18:41.076 0.79
11:18:41.140 0.75
11:18:41.140 0.73
11:18:41.140 0.71
11:18:41.159 0.69
11:18:41.230 0.67
11:18:41.230 0.65
11:18:41.230 0.64
11:18:41.238 0.62
11:18:41.305 0.6
11:18:41.305 0.59
11:18:41.305 0.58
11:18:41.305 0.57
11:18:41.318 0.56
11:18:41.328 0.55
11:18:41.336 0.54
11:18:41.404 0.53
11:18:41.404 0.52
11:18:41.404 0.51
11:18:41.404 0.5
11:18:41.417 0.48
11:18:41.426 0.47
11:18:41.442 0.46
11:18:41.504 0.44
11:18:41.504 0.43
11:18:41.504 0.42
11:18:41.504 0.41
11:18:41.515 0.43
11:18:41.523 0.48
11:18:41.592 0.58
11:18:41.592 0.7
11:18:41.592 0.82
11:18:41.592 0.91
11:18:41.602 0.96
11:18:41.613 0.98
11:18:41.681 0.98
11:18:41.681 0.96
11:18:41.681 0.94
11:18:41.681 0.92
11:18:41.692 0.9
11:18:41.700 0.88
11:18:41.709 0.87
11:18:41.780 0.86
11:18:41.780 0.85
11:18:41.780 0.83
11:18:41.780 0.82
11:18:41.792 0.82
11:18:41.802 0.82
11:18:41.810 0.83
11:18:41.834 0.84
11:18:41.843 0.84
11:18:41.852 0.83
11:18:41.922 0.8
11:18:41.922 0.78
11:18:41.928 0.76
11:18:41.989 0.74
11:18:41.989 0.72
11:18:42.003 0.67
11:18:42.011 0.65
11:18:42.076 0.63
11:18:42.076 0.61
11:18:42.076 0.6
11:18:42.088 0.58
11:18:42.109 0.57
11:18:42.121 0.56
11:18:42.130 0.55
11:18:42.206 0.53
11:18:42.206 0.52
11:18:42.206 0.51
11:18:42.218 0.5
11:18:42.228 0.49
11:18:42.235 0.47
11:18:42.297 0.46
11:18:42.297 0.45
11:18:42.297 0.46
11:18:42.306 0.51
11:18:42.314 0.58
11:18:42.323 0.69
11:18:42.392 0.8
11:18:42.392 0.89
11:18:42.392 0.95
11:18:42.392 0.98
11:18:42.401 0.98
11:18:42.408 0.96
11:18:42.469 0.94
11:18:42.469 0.92
11:18:42.469 0.9
11:18:42.469 0.89
11:18:42.481 0.88
11:18:42.500 0.88
11:18:42.511 0.85
11:18:42.518 0.84
11:18:42.578 0.82
11:18:42.578 0.81
11:18:42.578 0.81
11:18:42.590 0.81
11:18:42.596 0.81
11:18:42.665 0.8
11:18:42.665 0.79
11:18:42.665 0.77
11:18:42.675 0.75
11:18:42.739 0.73
11:18:42.739 0.71
11:18:42.739 0.69
11:18:42.739 0.66
11:18:42.757 0.64
11:18:42.765 0.62
11:18:42.773 0.6
11:18:42.781 0.58
11:18:42.843 0.56
11:18:42.843 0.55
11:18:42.843 0.53
11:18:42.843 0.52
11:18:42.875 0.49
11:18:42.942 0.48
11:18:42.942 0.47
11:18:42.955 0.46
11:18:43.022 0.45
11:18:43.022 0.43
11:18:43.022 0.42
11:18:43.022 0.41
11:18:43.091 0.39
11:18:43.091 0.37
11:18:43.091 0.37
11:18:43.101 0.39
11:18:43.113 0.44
11:18:43.192 0.54
11:18:43.202 0.66
11:18:43.202 0.77
11:18:43.213 0.85
11:18:43.222 0.9
11:18:43.288 0.91
11:18:43.288 0.9
11:18:43.288 0.88
11:18:43.288 0.85
11:18:43.346 0.83
11:18:43.346 0.82
11:18:43.346 0.82
11:18:43.402 0.81
11:18:43.402 0.8
11:18:43.402 0.78
11:18:43.476 0.76
11:18:43.476 0.75
11:18:43.476 0.75
11:18:43.476 0.75
11:18:43.494 0.74
11:18:43.506 0.73
11:18:43.506 0.72
11:18:43.516 0.7
11:18:43.588 0.68
11:18:43.588 0.66
11:18:43.588 0.64
11:18:43.588 0.62
11:18:43.601 0.6
11:18:43.614 0.56
11:18:43.678 0.54
11:18:43.678 0.52
11:18:43.678 0.5
11:18:43.678 0.49
11:18:43.695 0.47
11:18:43.710 0.46
11:18:43.725 0.44
11:18:43.737 0.43
11:18:43.808 0.42
11:18:43.808 0.41
11:18:43.808 0.39
11:18:43.808 0.38
11:18:43.818 0.37
11:18:43.891 0.34
11:18:43.891 0.32
11:18:43.891 0.31
11:18:43.891 0.3
11:18:43.966 0.28
11:18:43.966 0.26
11:18:43.966 0.25
11:18:43.983 0.24
11:18:43.992 0.25
11:18:44.062 0.28
11:18:44.062 0.36
11:18:44.062 0.46
11:18:44.074 0.58
11:18:44.083 0.67
11:18:44.094 0.73
11:18:44.157 0.76
11:18:44.157 0.75
11:18:44.161 0.74
11:18:44.223 0.71
11:18:44.223 0.69
11:18:44.223 0.68
11:18:44.247 0.67
11:18:44.258 0.67
11:18:44.258 0.67
11:18:44.274 0.66
11:18:44.282 0.64
11:18:44.346 0.63
11:18:44.346 0.62
11:18:44.346 0.61
11:18:44.346 0.61
11:18:44.423 0.61
11:18:44.423 0.6
11:18:44.423 0.59
11:18:44.423 0.58
11:18:44.432 0.56
11:18:44.515 0.52
11:18:44.515 0.5
11:18:44.515 0.48
11:18:44.515 0.47
11:18:44.586 0.43
11:18:44.586 0.41
11:18:44.586 0.39
11:18:44.586 0.38
11:18:44.599 0.36
11:18:44.668 0.33
11:18:44.668 0.32
11:18:44.668 0.31
11:18:44.668 0.3
11:18:44.679 0.29
11:18:44.746 0.28
11:18:44.746 0.26
11:18:44.746 0.25
11:18:44.746 0.23
11:18:44.760 0.22
11:18:44.769 0.21
11:18:44.778 0.2
11:18:44.843 0.18
11:18:44.843 0.17
11:18:44.843 0.15
11:18:44.843 0.14
11:18:44.855 0.12
11:18:44.872 0.11
11:18:44.880 0.11
11:18:44.943 0.12
11:18:44.943 0.16
11:18:44.954 0.25
11:18:45.021 0.35
11:18:45.021 0.46
11:18:45.033 0.55
11:18:45.033 0.6
11:18:45.097 0.62
11:18:45.097 0.62
11:18:45.097 0.6
11:18:45.097 0.57
11:18:45.111 0.55
11:18:45.128 0.54
11:18:45.204 0.53
11:18:45.204 0.53
11:18:45.204 0.52
11:18:45.286 0.5
11:18:45.286 0.49
11:18:45.286 0.48
11:18:45.298 0.48
11:18:45.298 0.49
11:18:45.361 0.49
11:18:45.361 0.49
11:18:45.361 0.49
11:18:45.361 0.48
11:18:45.374 0.47
11:18:45.436 0.44
11:18:45.436 0.42
11:18:45.436 0.4
11:18:45.447 0.38
11:18:45.458 0.36
11:18:45.523 0.34
11:18:45.523 0.32
11:18:45.523 0.31
11:18:45.523 0.29
11:18:45.537 0.28
11:18:45.544 0.27
11:18:45.610 0.26
11:18:45.610 0.25
11:18:45.610 0.24
11:18:45.620 0.23
11:18:45.620 0.22
11:18:45.684 0.22
11:18:45.684 0.21
11:18:45.684 0.2
11:18:45.694 0.19
11:18:45.694 0.18
11:18:45.756 0.16
11:18:45.756 0.15
11:18:45.756 0.13
11:18:45.772 0.12
11:18:45.780 0.13
11:18:45.789 0.15
11:18:45.851 0.2
11:18:45.851 0.28
11:18:45.851 0.37
11:18:45.851 0.46
11:18:45.872 0.54
11:18:45.935 0.54
11:18:45.935 0.53
11:18:45.953 0.49
11:18:45.963 0.48
11:18:46.035 0.46
11:18:46.035 0.46
11:18:46.035 0.45
11:18:46.045 0.44
11:18:46.109 0.42
11:18:46.109 0.41
11:18:46.109 0.41
11:18:46.120 0.41
11:18:46.183 0.42
11:18:46.183 0.42
11:18:46.193 0.42
11:18:46.202 0.42
11:18:46.213 0.42
11:18:46.229 0.41
11:18:46.241 0.39
11:18:46.303 0.38
11:18:46.303 0.36
11:18:46.303 0.34
11:18:46.303 0.32
11:18:46.338 0.29
11:18:46.406 0.27
11:18:46.406 0.26
11:18:46.406 0.24
11:18:46.406 0.23
11:18:46.416 0.22
11:18:46.423 0.21
11:18:46.487 0.2
11:18:46.487 0.19
11:18:46.487 0.18
11:18:46.487 0.18
11:18:46.499 0.17
11:18:46.507 0.16
11:18:46.572 0.15
11:18:46.572 0.14
11:18:46.572 0.13
11:18:46.572 0.14
11:18:46.582 0.16
11:18:46.648 0.31
11:18:46.648 0.4
11:18:46.648 0.48
11:18:46.660 0.54
11:18:46.668 0.57
11:18:46.735 0.57
11:18:46.735 0.56
11:18:46.735 0.54
11:18:46.735 0.53
11:18:46.751 0.52
11:18:46.760 0.51
11:18:46.771 0.51
11:18:46.839 0.5
11:18:46.839 0.49
11:18:46.839 0.48
11:18:46.849 0.47
11:18:46.922 0.47
11:18:46.922 0.47
11:18:46.922 0.47
11:18:46.940 0.47
11:18:46.952 0.46
11:18:47.020 0.45
11:18:47.020 0.44
11:18:47.034 0.43
11:18:47.106 0.4
11:18:47.106 0.38
11:18:47.106 0.36
11:18:47.106 0.35
11:18:47.116 0.33
11:18:47.183 0.31
11:18:47.183 0.3
11:18:47.192 0.29
11:18:47.199 0.27
11:18:47.259 0.26
11:18:47.259 0.25
11:18:47.259 0.24
11:18:47.272 0.23
11:18:47.279 0.23
11:18:47.289 0.22
11:18:47.359 0.21
11:18:47.359 0.2
11:18:47.359 0.19
11:18:47.359 0.18
11:18:47.374 0.17
11:18:47.395 0.15
11:18:47.405 0.14
11:18:47.405 0.14
11:18:47.419 0.16
11:18:47.482 0.21
11:18:47.482 0.3
11:18:47.482 0.4
11:18:47.482 0.5
11:18:47.493 0.58
11:18:47.565 0.63
11:18:47.565 0.62
11:18:47.565 0.61
11:18:47.581 0.58
11:18:47.643 0.57
11:18:47.643 0.57
11:18:47.643 0.56
11:18:47.643 0.56
11:18:47.708 0.55
11:18:47.708 0.54
11:18:47.708 0.53
11:18:47.708 0.53
11:18:47.719 0.52
11:18:47.728 0.53
11:18:47.745 0.53
11:18:47.761 0.53
11:18:47.773 0.52
11:18:47.837 0.51
11:18:47.837 0.5
11:18:47.837 0.49
11:18:47.837 0.47
11:18:47.847 0.46
11:18:47.911 0.44
11:18:47.911 0.42
11:18:47.911 0.41
11:18:47.971 0.39
11:18:47.971 0.37
11:18:47.971 0.36
11:18:47.981 0.34
11:18:48.056 0.33
11:18:48.056 0.32
11:18:48.056 0.31
11:18:48.069 0.29
11:18:48.069 0.28
11:18:48.137 0.28
11:18:48.137 0.27
11:18:48.137 0.26
11:18:48.149 0.25
11:18:48.211 0.24
11:18:48.211 0.23
11:18:48.222 0.21
11:18:48.222 0.2
11:18:48.286 0.19
11:18:48.286 0.18
11:18:48.286 0.17
11:18:48.286 0.15
11:18:48.301 0.15
11:18:48.313 0.15
11:18:48.375 0.19
11:18:48.375 0.26
11:18:48.375 0.37
11:18:48.375 0.48
11:18:48.389 0.58
11:18:48.400 0.64
11:18:48.476 0.67
11:18:48.476 0.66
11:18:48.476 0.64
11:18:48.486 0.62
11:18:48.486 0.6
11:18:48.553 0.59
11:18:48.553 0.59
11:18:48.553 0.58
11:18:48.553 0.58
11:18:48.562 0.57
11:18:48.634 0.56
11:18:48.634 0.56
11:18:48.634 0.56
11:18:48.650 0.56
11:18:48.650 0.56
11:18:48.660 0.56
11:18:48.669 0.56
11:18:48.735 0.55
11:18:48.735 0.54
11:18:48.735 0.52
11:18:48.735 0.5
11:18:48.750 0.48
11:18:48.759 0.46
11:18:48.831 0.45
11:18:48.831 0.43
11:18:48.831 0.41
11:18:48.831 0.39
11:18:48.843 0.38
11:18:48.851 0.36
11:18:48.918 0.35
11:18:48.918 0.33
11:18:48.918 0.32
11:18:48.918 0.31
11:18:48.928 0.3
11:18:48.992 0.29
11:18:48.992 0.28
11:18:48.992 0.27
11:18:49.021 0.26
11:18:49.029 0.25
11:18:49.099 0.24
11:18:49.099 0.23
11:18:49.099 0.21
11:18:49.111 0.2
11:18:49.118 0.19
11:18:49.135 0.18
11:18:49.204 0.17
11:18:49.204 0.15
11:18:49.204 0.14
11:18:49.221 0.13
11:18:49.232 0.13
11:18:49.295 0.16
11:18:49.295 0.22
11:18:49.295 0.32
11:18:49.365 0.54
11:18:49.365 0.61
11:18:49.365 0.65
11:18:49.375 0.65
11:18:49.383 0.64
11:18:49.451 0.62
11:18:49.451 0.6
11:18:49.451 0.58
11:18:49.451 0.57
11:18:49.529 0.55
11:18:49.529 0.54
11:18:49.529 0.53
11:18:49.539 0.52
11:18:49.547 0.51
11:18:49.622 0.51
11:18:49.622 0.51
11:18:49.622 0.52
11:18:49.622 0.52
11:18:49.635 0.52
11:18:49.643 0.52
11:18:49.704 0.51
11:18:49.704 0.49
11:18:49.713 0.46
11:18:49.720 0.44
11:18:49.790 0.41
11:18:49.790 0.39
11:18:49.790 0.37
11:18:49.800 0.36
11:18:49.806 0.34
11:18:49.869 0.33
11:18:49.869 0.31
11:18:49.869 0.3
11:18:49.879 0.29
11:18:49.887 0.28
11:18:49.953 0.27
11:18:49.953 0.26
11:18:49.953 0.25
11:18:49.953 0.24
11:18:49.965 0.24
11:18:50.033 0.23
11:18:50.033 0.22
11:18:50.042 0.21
11:18:50.048 0.2
11:18:50.110 0.17
11:18:50.120 0.16
11:18:50.189 0.14
11:18:50.189 0.13
11:18:50.189 0.12
11:18:50.200 0.12
11:18:50.266 0.13
11:18:50.266 0.19
11:18:50.266 0.28
11:18:50.340 0.5
11:18:50.340 0.58
11:18:50.340 0.63
11:18:50.340 0.65
11:18:50.416 0.6
11:18:50.416 0.56
11:18:50.428 0.55
11:18:50.496 0.52
11:18:50.496 0.51
11:18:50.506 0.49
11:18:50.514 0.49
11:18:50.578 0.51
11:18:50.578 0.52
11:18:50.590 0.52
11:18:50.603 0.52
11:18:50.620 0.51
11:18:50.683 0.49
11:18:50.683 0.48
11:18:50.683 0.46
11:18:50.683 0.44
11:18:50.698 0.42
11:18:50.761 0.4
11:18:50.761 0.38
11:18:50.761 0.37
11:18:50.761 0.35
11:18:50.771 0.34
11:18:50.788 0.32
11:18:50.803 0.31
11:18:50.880 0.3
11:18:50.880 0.29
11:18:50.880 0.29
11:18:50.880 0.28
11:18:50.892 0.27
11:18:50.901 0.26
11:18:50.912 0.25
11:18:50.920 0.24
11:18:50.990 0.22
11:18:50.990 0.22
11:18:50.990 0.23
11:18:51.003 0.26
11:18:51.078 0.43
11:18:51.078 0.53
11:18:51.087 0.63
11:18:51.154 0.71
11:18:51.154 0.72
11:18:51.154 0.7
11:18:51.176 0.68
11:18:51.184 0.66
11:18:51.254 0.64
11:18:51.254 0.63
11:18:51.254 0.61
11:18:51.270 0.6
11:18:51.329 0.59
11:18:51.329 0.57
11:18:51.329 0.56
11:18:51.329 0.56
11:18:51.338 0.56
11:18:51.347 0.56
11:18:51.409 0.57
11:18:51.409 0.58
11:18:51.409 0.58
11:18:51.426 0.56
11:18:51.488 0.54
11:18:51.488 0.53
11:18:51.488 0.51
11:18:51.488 0.49
11:18:51.502 0.47
11:18:51.517 0.45
11:18:51.527 0.43
11:18:51.534 0.41
11:18:51.595 0.39
11:18:51.595 0.38
11:18:51.595 0.36
11:18:51.595 0.35
11:18:51.614 0.34
11:18:51.623 0.33
11:18:51.635 0.32
11:18:51.708 0.31
11:18:51.708 0.3
11:18:51.708 0.29
11:18:51.708 0.28
11:18:51.717 0.27
11:18:51.727 0.27
11:18:51.735 0.26
11:18:51.807 0.25
11:18:51.807 0.24
11:18:51.807 0.24
11:18:51.807 0.26
11:18:51.818 0.31
11:18:51.833 0.4
11:18:51.833 0.51
11:18:51.904 0.62
11:18:51.904 0.71
11:18:51.904 0.76
11:18:51.904 0.78
11:18:51.928 0.78
11:18:51.928 0.76
11:18:52.001 0.72
11:18:52.001 0.7
11:18:52.014 0.69
11:18:52.020 0.68
11:18:52.092 0.67
11:18:52.092 0.66
11:18:52.092 0.65
11:18:52.101 0.63
11:18:52.179 0.63
11:18:52.179 0.63
11:18:52.179 0.64
11:18:52.193 0.64
11:18:52.202 0.63
11:18:52.217 0.63
11:18:52.292 0.61
11:18:52.292 0.6
11:18:52.292 0.58
11:18:52.310 0.56
11:18:52.310 0.54
11:18:52.323 0.52
11:18:52.338 0.5
11:18:52.347 0.48
11:18:52.410 0.46
11:18:52.410 0.44
11:18:52.410 0.43
11:18:52.410 0.41
11:18:52.487 0.39
11:18:52.487 0.37
11:18:52.487 0.36
11:18:52.487 0.35
11:18:52.500 0.34
11:18:52.567 0.33
11:18:52.567 0.32
11:18:52.567 0.31
11:18:52.567 0.3
11:18:52.581 0.29
11:18:52.581 0.28
11:18:52.650 0.27
11:18:52.650 0.25
11:18:52.650 0.24
11:18:52.650 0.24
11:18:52.650 0.26
11:18:52.668 0.31
11:18:52.748 0.53
11:18:52.748 0.65
11:18:52.748 0.75
11:18:52.748 0.81
11:18:52.758 0.83
11:18:52.825 0.81
11:18:52.825 0.78
11:18:52.825 0.76
11:18:52.836 0.74
11:18:52.911 0.72
11:18:52.911 0.71
11:18:52.911 0.7
11:18:52.911 0.68
11:18:52.928 0.67
11:18:52.942 0.67
11:18:53.016 0.67
11:18:53.016 0.68
11:18:53.029 0.68
11:18:53.098 0.67
11:18:53.098 0.65
11:18:53.098 0.63
11:18:53.098 0.62
11:18:53.173 0.6
11:18:53.173 0.58
11:18:53.173 0.55
11:18:53.185 0.53
11:18:53.195 0.51
11:18:53.203 0.49
11:18:53.266 0.47
11:18:53.266 0.46
11:18:53.278 0.44
11:18:53.285 0.42
11:18:53.299 0.41
11:18:53.313 0.4
11:18:53.375 0.39
11:18:53.375 0.38
11:18:53.375 0.36
11:18:53.375 0.35
11:18:53.391 0.34
11:18:53.398 0.33
11:18:53.467 0.32
11:18:53.467 0.31
11:18:53.467 0.3
11:18:53.467 0.29
11:18:53.480 0.27
11:18:53.480 0.26
11:18:53.543 0.24
11:18:53.543 0.24
11:18:53.543 0.25
11:18:53.543 0.3
11:18:53.560 0.39
11:18:53.568 0.51
11:18:53.631 0.64
11:18:53.631 0.75
11:18:53.631 0.82
11:18:53.631 0.85
11:18:53.643 0.86
11:18:53.707 0.84
11:18:53.707 0.82
11:18:53.707 0.8
11:18:53.725 0.78
11:18:53.725 0.76
11:18:53.733 0.74
11:18:53.796 0.73
11:18:53.796 0.72
11:18:53.796 0.7
11:18:53.796 0.69
11:18:53.807 0.69
11:18:53.875 0.69
11:18:53.875 0.7
11:18:53.875 0.7
11:18:53.875 0.71
11:18:53.888 0.7
11:18:53.896 0.7
11:18:53.964 0.68
11:18:53.964 0.67
11:18:53.964 0.65
11:18:53.964 0.63
11:18:54.035 0.6
11:18:54.035 0.58
11:18:54.035 0.56
11:18:54.128 0.54
11:18:54.128 0.52
11:18:54.128 0.5
11:18:54.128 0.48
11:18:54.141 0.46
11:18:54.150 0.44
11:18:54.221 0.43
11:18:54.221 0.42
11:18:54.221 0.4
11:18:54.221 0.39
11:18:54.294 0.38
11:18:54.294 0.37
11:18:54.294 0.36
11:18:54.299 0.35
11:18:54.309 0.34
11:18:54.396 0.32
11:18:54.396 0.3
11:18:54.396 0.29
11:18:54.396 0.27
11:18:54.463 0.25
11:18:54.463 0.25
11:18:54.463 0.28
11:18:54.463 0.35
11:18:54.476 0.47
11:18:54.487 0.6
11:18:54.494 0.73
11:18:54.565 0.82
11:18:54.565 0.88
11:18:54.565 0.9
11:18:54.565 0.89
11:18:54.583 0.87
11:18:54.598 0.84
11:18:54.608 0.82
11:18:54.620 0.8
11:18:54.631 0.78
11:18:54.640 0.76
11:18:54.718 0.75
11:18:54.718 0.73
11:18:54.718 0.72
11:18:54.718 0.71
11:18:54.727 0.71
11:18:54.733 0.72
11:18:54.803 0.73
11:18:54.803 0.73
11:18:54.803 0.73
11:18:54.803 0.73
11:18:54.812 0.72
11:18:54.821 0.7
11:18:54.888 0.68
11:18:54.888 0.66
11:18:54.888 0.64
11:18:54.888 0.62
11:18:54.903 0.59
11:18:54.912 0.57
11:18:54.982 0.55
11:18:54.982 0.52
11:18:54.982 0.5
11:18:54.982 0.48
11:18:55.066 0.45
11:18:55.066 0.44
11:18:55.075 0.42
11:18:55.095 0.4
11:18:55.151 0.39
11:18:55.151 0.38
11:18:55.151 0.37
11:18:55.221 0.36
11:18:55.221 0.35
11:18:55.221 0.33
11:18:55.232 0.32
11:18:55.256 0.31
11:18:55.334 0.28
11:18:55.334 0.27
11:18:55.334 0.28
11:18:55.334 0.33
11:18:55.345 0.43
11:18:55.358 0.56
11:18:55.427 0.7
11:18:55.427 0.81
11:18:55.427 0.89
11:18:55.427 0.93
11:18:55.497 0.92
11:18:55.497 0.89
11:18:55.497 0.87
11:18:55.497 0.84
11:18:55.513 0.82
11:18:55.527 0.79
11:18:55.590 0.77
11:18:55.590 0.75
11:18:55.590 0.74
11:18:55.590 0.74
11:18:55.609 0.74
11:18:55.619 0.75
11:18:55.687 0.76
11:18:55.687 0.76
11:18:55.687 0.76
11:18:55.687 0.75
11:18:55.700 0.74
11:18:55.762 0.72
11:18:55.762 0.7
11:18:55.762 0.67
11:18:55.762 0.65
11:18:55.775 0.62
11:18:55.787 0.6
11:18:55.795 0.58
11:18:55.855 0.55
11:18:55.855 0.53
11:18:55.855 0.51
11:18:55.870 0.49
11:18:55.878 0.47
11:18:55.892 0.46
11:18:55.953 0.44
11:18:55.953 0.43
11:18:55.953 0.42
11:18:55.953 0.41
11:18:56.031 0.39
11:18:56.031 0.37
11:18:56.031 0.36
11:18:56.045 0.35
11:18:56.112 0.33
11:18:56.112 0.32
11:18:56.124 0.3
11:18:56.135 0.29
11:18:56.147 0.28
11:18:56.211 0.27
11:18:56.211 0.3
11:18:56.211 0.37
11:18:56.223 0.49
11:18:56.223 0.63
11:18:56.296 0.76
11:18:56.296 0.87
11:18:56.310 0.93
11:18:56.310 0.95
11:18:56.318 0.94
11:18:56.324 0.92
11:18:56.387 0.9
11:18:56.387 0.87
11:18:56.387 0.85
11:18:56.397 0.83
11:18:56.406 0.81
11:18:56.414 0.8
11:18:56.482 0.77
11:18:56.482 0.75
11:18:56.482 0.74
11:18:56.482 0.74
11:18:56.493 0.74
11:18:56.553 0.75
11:18:56.553 0.76
11:18:56.553 0.77
11:18:56.553 0.76
11:18:56.562 0.75
11:18:56.633 0.74
11:18:56.633 0.72
11:18:56.633 0.7
11:18:56.633 0.67
11:18:56.643 0.65
11:18:56.649 0.62
11:18:56.710 0.59
11:18:56.710 0.57
11:18:56.710 0.55
11:18:56.710 0.52
11:18:56.766 0.5
11:18:56.766 0.48
11:18:56.766 0.47
11:18:56.766 0.45
11:18:56.836 0.44
11:18:56.836 0.43
11:18:56.836 0.42
11:18:56.836 0.41
11:18:56.846 0.4
11:18:56.855 0.39
11:18:56.922 0.37
11:18:56.922 0.36
11:18:56.922 0.35
11:18:56.922 0.34
11:18:56.935 0.32
11:18:56.996 0.31
11:18:56.996 0.31
11:18:56.996 0.33
11:18:57.020 0.39
11:18:57.029 0.5
11:18:57.096 0.63
11:18:57.096 0.76
11:18:57.101 0.87
11:18:57.160 0.94
11:18:57.160 0.96
11:18:57.160 0.96
11:18:57.188 0.92
11:18:57.202 0.89
11:18:57.265 0.87
11:18:57.265 0.84
11:18:57.265 0.82
11:18:57.351 0.77
11:18:57.351 0.75
11:18:57.351 0.74
11:18:57.362 0.74
11:18:57.362 0.75
11:18:57.374 0.77
11:18:57.384 0.78
11:18:57.445 0.79
11:18:57.445 0.79
11:18:57.445 0.78
11:18:57.445 0.77
11:18:57.456 0.75
11:18:57.521 0.73
11:18:57.521 0.7
11:18:57.521 0.67
11:18:57.521 0.64
11:18:57.541 0.61
11:18:57.551 0.58
11:18:57.620 0.56
11:18:57.620 0.53
11:18:57.620 0.51
11:18:57.620 0.49
11:18:57.632 0.47
11:18:57.641 0.46
11:18:57.653 0.44
11:18:57.723 0.42
11:18:57.723 0.41
11:18:57.723 0.4
11:18:57.734 0.39
11:18:57.741 0.38
11:18:57.805 0.38
11:18:57.805 0.4
11:18:57.805 0.46
11:18:57.805 0.57
11:18:57.819 0.7
11:18:57.884 0.83
11:18:57.884 0.93
11:18:57.884 0.99
11:18:57.884 0.96
11:18:57.905 0.94
11:18:57.968 0.91
11:18:57.968 0.89
11:18:57.968 0.86
11:18:57.968 0.84
11:18:57.982 0.82
11:18:58.043 0.8
11:18:58.043 0.78
11:18:58.043 0.76
11:18:58.057 0.75
11:18:58.119 0.75
11:18:58.119 0.76
11:18:58.131 0.77
11:18:58.204 0.77
11:18:58.204 0.78
11:18:58.204 0.77
11:18:58.204 0.76
11:18:58.218 0.74
11:18:58.225 0.72
11:18:58.286 0.7
11:18:58.286 0.68
11:18:58.298 0.65
11:18:58.302 0.62
11:18:58.360 0.6
11:18:58.360 0.58
11:18:58.360 0.55
11:18:58.369 0.53
11:18:58.375 0.51
11:18:58.386 0.49
11:18:58.460 0.48
11:18:58.460 0.47
11:18:58.460 0.45
11:18:58.460 0.44
11:18:58.469 0.43
11:18:58.476 0.42
11:18:58.485 0.41
11:18:58.547 0.4
11:18:58.547 0.39
11:18:58.547 0.4
11:18:58.547 0.44
11:18:58.558 0.51
11:18:58.572 0.63
11:18:58.635 0.76
11:18:58.635 0.87
11:18:58.635 0.96
11:18:58.649 1.0
11:18:58.649 0.97
11:18:58.663 0.96
11:18:58.724 0.94
11:18:58.724 0.92
11:18:58.724 0.9
11:18:58.735 0.88
11:18:58.795 0.87
11:18:58.795 0.85
11:18:58.795 0.84
11:18:58.804 0.82
11:18:58.875 0.81
11:18:58.875 0.81
11:18:58.875 0.81
11:18:58.888 0.81
11:18:58.952 0.8
11:18:58.952 0.79
11:18:58.952 0.77
11:18:58.952 0.75
11:18:58.965 0.73
11:18:58.976 0.71
11:18:59.053 0.68
11:18:59.053 0.66
11:18:59.053 0.64
11:18:59.120 0.59
11:18:59.120 0.57
11:18:59.132 0.56
11:18:59.197 0.54
11:18:59.197 0.52
11:18:59.207 0.5
11:18:59.224 0.49
11:18:59.234 0.48
11:18:59.308 0.47
11:18:59.308 0.46
11:18:59.308 0.44
11:18:59.327 0.43
11:18:59.391 0.42
11:18:59.391 0.4
11:18:59.391 0.4
11:18:59.401 0.43
11:18:59.407 0.49
11:18:59.473 0.58
11:18:59.473 0.7
11:18:59.473 0.81
11:18:59.473 0.9
11:18:59.493 0.95
11:18:59.564 0.96
11:18:59.564 0.96
11:18:59.564 0.94
11:18:59.573 0.92
11:18:59.591 0.89
11:18:59.663 0.87
11:18:59.663 0.86
11:18:59.663 0.84
11:18:59.672 0.83
11:18:59.739 0.81
11:18:59.739 0.8
11:18:59.739 0.8
11:18:59.739 0.8
11:18:59.766 0.79
11:18:59.832 0.77
11:18:59.832 0.75
11:18:59.848 0.71
11:18:59.857 0.69
11:18:59.924 0.64
11:18:59.924 0.62
11:18:59.934 0.57
11:18:59.997 0.55
11:18:59.997 0.52
11:18:59.997 0.5
11:19:00.022 0.47
11:19:00.032 0.46
11:19:00.100 0.44
11:19:00.114 0.42
11:19:00.114 0.41
11:19:00.182 0.4
11:19:00.182 0.39
11:19:00.182 0.38
11:19:00.192 0.36
11:19:00.271 0.35
11:19:00.271 0.33
11:19:00.271 0.32
11:19:00.271 0.3
11:19:00.285 0.31
11:19:00.285 0.34
11:19:00.360 0.41
11:19:00.360 0.52
11:19:00.360 0.64
11:19:00.370 0.74
11:19:00.370 0.81
11:19:00.432 0.85
11:19:00.432 0.85
11:19:00.432 0.84
11:19:00.441 0.82
11:19:00.513 0.78
11:19:00.513 0.77
11:19:00.513 0.75
11:19:00.523 0.74
11:19:00.589 0.71
11:19:00.589 0.7
11:19:00.600 0.69
11:19:00.610 0.69
11:19:00.679 0.69
11:19:00.679 0.69
11:19:00.689 0.67
11:19:00.698 0.65
11:19:00.781 0.61
11:19:00.781 0.59
11:19:00.794 0.55
11:19:00.794 0.53
11:19:00.801 0.52
11:19:00.862 0.5
11:19:00.862 0.48
11:19:00.862 0.46
11:19:00.872 0.45
11:19:00.881 0.44
11:19:00.893 0.43
11:19:00.910 0.41
11:19:00.971 0.4
11:19:00.971 0.39
11:19:00.971 0.38
11:19:00.971 0.37
11:19:00.983 0.36
11:19:00.995 0.35
11:19:01.012 0.34
11:19:01.022 0.33
11:19:01.032 0.31
11:19:01.095 0.3
11:19:01.095 0.29
11:19:01.114 0.27
11:19:01.180 0.26
11:19:01.180 0.25
11:19:01.190 0.27
11:19:01.263 0.32
11:19:01.263 0.4
11:19:01.263 0.51
11:19:01.263 0.62
11:19:01.277 0.69
11:19:01.285 0.74
11:19:01.348 0.75
11:19:01.348 0.74
11:19:01.361 0.72
11:19:01.371 0.7
11:19:01.383 0.68
11:19:01.448 0.65
11:19:01.448 0.63
11:19:01.448 0.63
11:19:01.457 0.6
11:19:01.464 0.59
11:19:01.472 0.58
11:19:01.546 0.58
11:19:01.546 0.59
11:19:01.546 0.59
11:19:01.554 0.59
11:19:01.562 0.59
11:19:01.629 0.57
11:19:01.629 0.55
11:19:01.629 0.53
11:19:01.644 0.51
11:19:01.651 0.49
11:19:01.660 0.48
11:19:01.726 0.46
11:19:01.726 0.44
11:19:01.726 0.42
11:19:01.740 0.39
11:19:01.748 0.38
11:19:01.829 0.36
11:19:01.829 0.35
11:19:01.829 0.34
11:19:01.844 0.33
11:19:01.844 0.32
11:19:01.852 0.32
11:19:01.925 0.3
11:19:01.925 0.29
11:19:01.925 0.27
11:19:01.936 0.26
11:19:01.936 0.26
11:19:01.949 0.26
11:19:02.027 0.36
11:19:02.027 0.45
11:19:02.027 0.56
11:19:02.027 0.65
11:19:02.036 0.7
11:19:02.045 0.73
11:19:02.108 0.73
11:19:02.108 0.72
11:19:02.118 0.7
11:19:02.194 0.68
11:19:02.194 0.66
11:19:02.194 0.64
11:19:02.202 0.63
11:19:02.271 0.62
11:19:02.271 0.61
11:19:02.271 0.59
11:19:02.271 0.58
11:19:02.281 0.58
11:19:02.350 0.58
11:19:02.350 0.59
11:19:02.360 0.59
11:19:02.369 0.59
11:19:02.381 0.58
11:19:02.397 0.57
11:19:02.458 0.55
11:19:02.458 0.54
11:19:02.458 0.52
11:19:02.458 0.5
11:19:02.474 0.48
11:19:02.474 0.46
11:19:02.543 0.44
11:19:02.543 0.42
11:19:02.543 0.41
11:19:02.543 0.39
11:19:02.552 0.38
11:19:02.559 0.36
11:19:02.620 0.35
11:19:02.620 0.34
11:19:02.620 0.33
11:19:02.633 0.32
11:19:02.642 0.32
11:19:02.651 0.31
11:19:02.718 0.3
11:19:02.718 0.29
11:19:02.718 0.28
11:19:02.718 0.27
11:19:02.732 0.26
11:19:02.744 0.25
11:19:02.808 0.24
11:19:02.808 0.22
11:19:02.808 0.21
11:19:02.808 0.22
11:19:02.817 0.25
11:19:02.825 0.32
11:19:02.896 0.43
11:19:02.896 0.54
11:19:02.896 0.64
11:19:02.896 0.7
11:19:02.909 0.73
11:19:02.909 0.74
11:19:02.971 0.73
11:19:02.971 0.71
11:19:02.971 0.69
11:19:02.986 0.66
11:19:03.048 0.65
11:19:03.048 0.64
11:19:03.048 0.64
11:19:03.059 0.62
11:19:03.126 0.61
11:19:03.126 0.6
11:19:03.145 0.6
11:19:03.212 0.6
11:19:03.212 0.61
11:19:03.212 0.61
11:19:03.224 0.6
11:19:03.224 0.6
11:19:03.285 0.59
11:19:03.285 0.57
11:19:03.285 0.56
11:19:03.285 0.54
11:19:03.358 0.52
11:19:03.358 0.5
11:19:03.374 0.48
11:19:03.374 0.47
11:19:03.382 0.45
11:19:03.391 0.43
11:19:03.454 0.41
11:19:03.454 0.4
11:19:03.454 0.39
11:19:03.454 0.38
11:19:03.475 0.36
11:19:03.487 0.35
11:19:03.495 0.34
11:19:03.505 0.33
11:19:03.566 0.32
11:19:03.566 0.32
11:19:03.566 0.31
11:19:03.577 0.3
11:19:03.640 0.29
11:19:03.640 0.28
11:19:03.640 0.26
11:19:03.640 0.25
11:19:03.649 0.24
11:19:03.711 0.23
11:19:03.711 0.21
11:19:03.711 0.21
11:19:03.711 0.21
11:19:03.722 0.25
11:19:03.789 0.32
11:19:03.789 0.42
11:19:03.789 0.54
11:19:03.789 0.63
11:19:03.799 0.69
11:19:03.862 0.72
11:19:03.862 0.72
11:19:03.862 0.71
11:19:03.862 0.69
11:19:03.874 0.67
11:19:03.946 0.65
11:19:03.946 0.63
11:19:03.946 0.62
11:19:03.946 0.61
11:19:03.955 0.6
11:19:03.962 0.59
11:19:03.970 0.58
11:19:04.036 0.57
11:19:04.036 0.57
11:19:04.036 0.57
11:19:04.036 0.58
11:19:04.055 0.58
11:19:04.125 0.58
11:19:04.125 0.57
11:19:04.125 0.56
11:19:04.197 0.55
11:19:04.197 0.53
11:19:04.197 0.51
11:19:04.207 0.49
11:19:04.215 0.47
11:19:04.224 0.45
11:19:04.290 0.44
11:19:04.290 0.42
11:19:04.290 0.4
11:19:04.302 0.39
11:19:04.375 0.36
11:19:04.375 0.34
11:19:04.375 0.33
11:19:04.383 0.32
11:19:04.450 0.31
11:19:04.450 0.3
11:19:04.450 0.29
11:19:04.450 0.28
11:19:04.461 0.27
11:19:04.471 0.26
11:19:04.540 0.25
11:19:04.540 0.24
11:19:04.540 0.23
11:19:04.540 0.22
11:19:04.550 0.21
11:19:04.557 0.2
11:19:04.622 0.18
11:19:04.622 0.17
11:19:04.622 0.16
11:19:04.622 0.14
11:19:04.637 0.14
11:19:04.700 0.15
11:19:04.700 0.2
11:19:04.700 0.28
11:19:04.700 0.39
11:19:04.713 0.5
11:19:04.775 0.59
11:19:04.775 0.64
11:19:04.775 0.66
11:19:04.775 0.66
11:19:04.785 0.64
11:19:04.792 0.62
11:19:04.859 0.6
11:19:04.859 0.58
11:19:04.859 0.56
11:19:04.859 0.55
11:19:04.870 0.54
11:19:04.877 0.53
11:19:04.943 0.51
11:19:04.943 0.5
11:19:04.943 0.5
11:19:04.943 0.5
11:19:04.961 0.51
11:19:05.033 0.51
11:19:05.033 0.51
11:19:05.033 0.51
11:19:05.033 0.51
11:19:05.045 0.5
11:19:05.045 0.48
11:19:05.114 0.47
11:19:05.114 0.45
11:19:05.114 0.43
11:19:05.186 0.41
11:19:05.186 0.39
11:19:05.200 0.35
11:19:05.277 0.34
11:19:05.277 0.32
11:19:05.277 0.3
11:19:05.277 0.29
11:19:05.290 0.28
11:19:05.290 0.27
11:19:05.364 0.25
11:19:05.364 0.24
11:19:05.364 0.24
11:19:05.364 0.23
11:19:05.374 0.22
11:19:05.436 0.21
11:19:05.436 0.2
11:19:05.436 0.19
11:19:05.440 0.18
11:19:05.515 0.15
11:19:05.515 0.14
11:19:05.515 0.13
11:19:05.523 0.1
11:19:05.589 0.09
11:19:05.589 0.09
11:19:05.589 0.12
11:19:05.600 0.18
11:19:05.600 0.27
11:19:05.613 0.38
11:19:05.678 0.48
11:19:05.678 0.55
11:19:05.678 0.59
11:19:05.678 0.6
11:19:05.709 0.6
11:19:05.720 0.58
11:19:05.720 0.56
11:19:05.734 0.54
11:19:05.798 0.52
11:19:05.798 0.51
11:19:05.798 0.5
11:19:05.798 0.48
11:19:05.819 0.47
11:19:05.887 0.45
11:19:05.887 0.45
11:19:05.887 0.46
11:19:05.887 0.47
11:19:05.896 0.48
11:19:05.959 0.48
11:19:05.959 0.48
11:19:05.959 0.48
11:19:05.959 0.47
11:19:06.038 0.44
11:19:06.038 0.43
11:19:06.038 0.41
11:19:06.049 0.39
11:19:06.069 0.38
11:19:06.088 0.36
11:19:06.153 0.34
11:19:06.153 0.33
11:19:06.170 0.31
11:19:06.177 0.3
11:19:06.242 0.29
11:19:06.242 0.28
11:19:06.242 0.27
11:19:06.252 0.26
11:19:06.259 0.26
11:19:06.320 0.25
11:19:06.320 0.24
11:19:06.320 0.24
11:19:06.392 0.22
11:19:06.392 0.21
11:19:06.392 0.2
11:19:06.403 0.2
11:19:06.411 0.19
11:19:06.420 0.2
11:19:06.486 0.23
11:19:06.486 0.29
11:19:06.486 0.38
11:19:06.496 0.48
11:19:06.496 0.56
11:19:06.564 0.62
11:19:06.564 0.65
11:19:06.564 0.65
11:19:06.564 0.64
11:19:06.580 0.62
11:19:06.641 0.6
11:19:06.641 0.58
11:19:06.641 0.56
11:19:06.641 0.54
11:19:06.655 0.53
11:19:06.661 0.52
11:19:06.716 0.5
11:19:06.716 0.49
11:19:06.716 0.49
11:19:06.720 0.5
11:19:06.779 0.51
11:19:06.779 0.52
11:19:06.779 0.53
11:19:06.790 0.53
11:19:06.851 0.53
11:19:06.851 0.52
11:19:06.851 0.51
11:19:06.851 0.49
11:19:06.858 0.48
11:19:06.920 0.46
11:19:06.920 0.44
11:19:06.920 0.42
11:19:06.934 0.39
11:19:06.944 0.37
11:19:07.012 0.36
11:19:07.012 0.34
11:19:07.012 0.33
11:19:07.012 0.32
11:19:07.070 0.31
11:19:07.070 0.31
11:19:07.070 0.3
11:19:07.070 0.29
11:19:07.146 0.28
11:19:07.146 0.28
11:19:07.218 0.29
11:19:07.218 0.33
11:19:07.218 0.39
11:19:07.294 0.58
11:19:07.294 0.66
11:19:07.294 0.71
11:19:07.294 0.73
11:19:07.304 0.73
11:19:07.311 0.72
11:19:07.376 0.7
11:19:07.376 0.68
11:19:07.376 0.67
11:19:07.389 0.65
11:19:07.401 0.64
11:19:07.470 0.62
11:19:07.470 0.61
11:19:07.470 0.6
11:19:07.481 0.59
11:19:07.481 0.59
11:19:07.545 0.6
11:19:07.545 0.6
11:19:07.545 0.61
11:19:07.555 0.6
11:19:07.565 0.6
11:19:07.574 0.59
11:19:07.633 0.57
11:19:07.633 0.56
11:19:07.633 0.54
11:19:07.633 0.52
11:19:07.646 0.5
11:19:07.708 0.49
11:19:07.708 0.47
11:19:07.708 0.45
11:19:07.708 0.44
11:19:07.718 0.42
11:19:07.786 0.41
11:19:07.786 0.4
11:19:07.786 0.39
11:19:07.786 0.38
11:19:07.796 0.37
11:19:07.858 0.36
11:19:07.858 0.35
11:19:07.858 0.34
11:19:07.858 0.33
11:19:07.870 0.32
11:19:07.937 0.31
11:19:07.937 0.3
11:19:07.937 0.3
11:19:07.937 0.32
11:19:07.950 0.36
11:19:07.958 0.44
11:19:08.028 0.53
11:19:08.028 0.62
11:19:08.028 0.69
11:19:08.028 0.72
11:19:08.039 0.73
11:19:08.049 0.72
11:19:08.115 0.7
11:19:08.115 0.68
11:19:08.125 0.66
11:19:08.209 0.65
11:19:08.209 0.64
11:19:08.223 0.63
11:19:08.223 0.63
11:19:08.238 0.61
11:19:08.252 0.6
11:19:08.259 0.59
11:19:08.270 0.59
11:19:08.334 0.58
11:19:08.334 0.58
11:19:08.345 0.58
11:19:08.355 0.58
11:19:08.415 0.57
11:19:08.415 0.56
11:19:08.415 0.55
11:19:08.426 0.54
11:19:08.426 0.52
11:19:08.436 0.5
11:19:08.498 0.49
11:19:08.498 0.47
11:19:08.498 0.45
11:19:08.507 0.44
11:19:08.517 0.42
11:19:08.587 0.4
11:19:08.587 0.39
11:19:08.587 0.37
11:19:08.587 0.36
11:19:08.600 0.35
11:19:08.600 0.34
11:19:08.669 0.33
11:19:08.669 0.32
11:19:08.669 0.31
11:19:08.669 0.3
11:19:08.681 0.29
11:19:08.700 0.28
11:19:08.708 0.27
11:19:08.720 0.26
11:19:08.785 0.25
11:19:08.785 0.24
11:19:08.785 0.23
11:19:08.799 0.22
11:19:08.799 0.21
11:19:08.813 0.21
11:19:08.876 0.23
11:19:08.876 0.28
11:19:08.876 0.36
11:19:08.876 0.45
11:19:08.888 0.53
11:19:08.957 0.6
11:19:08.957 0.6
11:19:08.957 0.58
11:19:09.026 0.55
11:19:09.026 0.53
11:19:09.026 0.52
11:19:09.026 0.52
11:19:09.038 0.51
11:19:09.112 0.49
11:19:09.112 0.48
11:19:09.121 0.48
11:19:09.186 0.47
11:19:09.199 0.48
11:19:09.209 0.48
11:19:09.222 0.47
11:19:09.305 0.46
11:19:09.305 0.45
11:19:09.305 0.44
11:19:09.305 0.43
11:19:09.318 0.42
11:19:09.328 0.4
11:19:09.397 0.39
11:19:09.397 0.37
11:19:09.397 0.35
11:19:09.413 0.34
11:19:09.474 0.33
11:19:09.474 0.31
11:19:09.474 0.3
11:19:09.489 0.29
11:19:09.498 0.28
11:19:09.510 0.27
11:19:09.576 0.27
11:19:09.576 0.26
11:19:09.576 0.25
11:19:09.588 0.24
11:19:09.588 0.23
11:19:09.651 0.22
11:19:09.651 0.21
11:19:09.651 0.2
11:19:09.662 0.19
11:19:09.730 0.18
11:19:09.730 0.17
11:19:09.730 0.16
11:19:09.730 0.15
11:19:09.739 0.14
11:19:09.753 0.13
11:19:09.817 0.12
11:19:09.817 0.11
11:19:09.817 0.12
11:19:09.817 0.14
11:19:09.826 0.19
11:19:09.895 0.27
11:19:09.895 0.36
11:19:09.895 0.43
11:19:09.895 0.48
11:19:09.904 0.5
11:19:09.972 0.48
11:19:09.972 0.46
11:19:09.972 0.45
11:19:09.985 0.44
11:19:10.055 0.42
11:19:10.055 0.41
11:19:10.064 0.4
11:19:10.130 0.4
11:19:10.130 0.4
11:19:10.130 0.4
11:19:10.186 0.4
11:19:10.249 0.4
11:19:10.249 0.39
11:19:10.266 0.38
11:19:10.266 0.37
11:19:10.274 0.35
11:19:10.345 0.34
11:19:10.345 0.33
11:19:10.345 0.32
11:19:10.345 0.31
11:19:10.355 0.29
11:19:10.371 0.28
11:19:10.380 0.27
11:19:10.447 0.26
11:19:10.447 0.25
11:19:10.458 0.25
11:19:10.469 0.24
11:19:10.543 0.23
11:19:10.543 0.22
11:19:10.543 0.22
11:19:10.543 0.21
11:19:10.578 0.2
11:19:10.578 0.2
11:19:10.578 0.19
11:19:10.601 0.17
11:19:10.664 0.16
11:19:10.664 0.15
11:19:10.664 0.15
11:19:10.664 0.14
11:19:10.679 0.13
11:19:10.689 0.12
11:19:10.752 0.11
11:19:10.752 0.1
11:19:10.752 0.1
11:19:10.768 0.1
11:19:10.834 0.19
11:19:10.834 0.27
11:19:10.834 0.36
11:19:10.844 0.43
11:19:10.906 0.48
11:19:10.906 0.5
11:19:10.906 0.49
11:19:10.915 0.48
11:19:10.921 0.46
11:19:10.986 0.45
11:19:10.986 0.44
11:19:10.986 0.43
11:19:10.986 0.43
11:19:10.999 0.43
11:19:11.009 0.42
11:19:11.017 0.42
11:19:11.083 0.41
11:19:11.083 0.41
11:19:11.083 0.41
11:19:11.083 0.42
11:19:11.096 0.42
11:19:11.158 0.43
11:19:11.158 0.43
11:19:11.158 0.42
11:19:11.158 0.41
11:19:11.233 0.41
11:19:11.233 0.4
11:19:11.233 0.38
11:19:11.254 0.37
11:19:11.270 0.36
11:19:11.324 0.35
11:19:11.324 0.34
11:19:11.324 0.33
11:19:11.385 0.31
11:19:11.385 0.3
11:19:11.385 0.29
11:19:11.395 0.29
11:19:11.461 0.28
11:19:11.461 0.28
11:19:11.461 0.27
11:19:11.472 0.27
11:19:11.539 0.26
11:19:11.539 0.25
11:19:11.539 0.25
11:19:11.539 0.24
11:19:11.552 0.23
11:19:11.562 0.22
11:19:11.579 0.22
11:19:11.654 0.21
11:19:11.654 0.2
11:19:11.654 0.2
11:19:11.654 0.19
11:19:11.665 0.19
11:19:11.665 0.2
11:19:11.678 0.24
11:19:11.739 0.31
11:19:11.739 0.39
11:19:11.739 0.47
11:19:11.739 0.52
11:19:11.753 0.56
11:19:11.768 0.56
11:19:11.831 0.55
11:19:11.831 0.54
11:19:11.831 0.52
11:19:11.831 0.51
11:19:11.843 0.49
11:19:11.849 0.48
11:19:11.912 0.48
11:19:11.912 0.47
11:19:11.912 0.46
11:19:11.921 0.45
11:19:11.932 0.45
11:19:11.995 0.46
11:19:11.995 0.46
11:19:11.995 0.47
11:19:11.995 0.47
11:19:12.070 0.46
11:19:12.070 0.45
11:19:12.070 0.44
11:19:12.070 0.43
11:19:12.081 0.41
11:19:12.090 0.4
11:19:12.162 0.39
11:19:12.162 0.37
11:19:12.162 0.36
11:19:12.236 0.35
11:19:12.236 0.34
11:19:12.246 0.33
11:19:12.254 0.33
11:19:12.265 0.32
11:19:12.335 0.32
11:19:12.335 0.32
11:19:12.335 0.31
11:19:12.335 0.3
11:19:12.349 0.3
11:19:12.349 0.29
11:19:12.412 0.28
11:19:12.412 0.27
11:19:12.412 0.26
11:19:12.489 0.25
11:19:12.489 0.24
11:19:12.489 0.24
11:19:12.489 0.25
11:19:12.501 0.29
11:19:12.510 0.35
11:19:12.518 0.43
11:19:12.586 0.51
11:19:12.586 0.58
11:19:12.586 0.61
11:19:12.586 0.62
11:19:12.598 0.62
11:19:12.606 0.6
11:19:12.676 0.59
11:19:12.676 0.57
11:19:12.676 0.56
11:19:12.676 0.55
11:19:12.686 0.55
11:19:12.703 0.54
11:19:12.713 0.54
11:19:12.788 0.52
11:19:12.788 0.52
11:19:12.788 0.52
11:19:12.788 0.52
11:19:12.809 0.52
11:19:12.869 0.52
11:19:12.869 0.51
11:19:12.869 0.51
11:19:12.879 0.49
11:19:12.879 0.48
11:19:12.944 0.47
11:19:12.944 0.45
11:19:12.944 0.44
11:19:12.944 0.42
11:19:12.958 0.41
11:19:12.967 0.4
11:19:12.978 0.39
11:19:13.045 0.37
11:19:13.045 0.37
11:19:13.045 0.36
11:19:13.045 0.35
11:19:13.062 0.34
11:19:13.069 0.33
11:19:13.086 0.33
11:19:13.149 0.32
11:19:13.149 0.31
11:19:13.218 0.31
11:19:13.218 0.3
11:19:13.218 0.3
11:19:13.286 0.29
11:19:13.286 0.28
11:19:13.286 0.28
11:19:13.286 0.26
11:19:13.302 0.24
11:19:13.315 0.25
11:19:13.384 0.28
11:19:13.384 0.34
11:19:13.384 0.43
11:19:13.398 0.52
11:19:13.409 0.6
11:19:13.416 0.65
11:19:13.480 0.67
11:19:13.480 0.67
11:19:13.480 0.66
11:19:13.480 0.64
11:19:13.555 0.63
11:19:13.555 0.62
11:19:13.555 0.61
11:19:13.555 0.6
11:19:13.555 0.6
11:19:13.571 0.6
11:19:13.585 0.59
11:19:13.649 0.58
11:19:13.649 0.57
11:19:13.649 0.57
11:19:13.649 0.57
11:19:13.660 0.58
11:19:13.669 0.58
11:19:13.732 0.58
11:19:13.732 0.57
11:19:13.732 0.56
11:19:13.732 0.55
11:19:13.751 0.54
11:19:13.769 0.51
11:19:13.831 0.49
11:19:13.831 0.48
11:19:13.831 0.47
11:19:13.846 0.45
11:19:13.846 0.44
11:19:13.859 0.43
11:19:13.922 0.41
11:19:13.922 0.4
11:19:13.922 0.39
11:19:13.941 0.39
11:19:13.941 0.38
11:19:13.950 0.37
11:19:14.017 0.35
11:19:14.017 0.35
11:19:14.017 0.34
11:19:14.030 0.33
11:19:14.039 0.32
11:19:14.112 0.3
11:19:14.112 0.29
11:19:14.112 0.28
11:19:14.124 0.27
11:19:14.198 0.26
11:19:14.198 0.25
11:19:14.198 0.24
11:19:14.267 0.23
11:19:14.267 0.24
11:19:14.267 0.28
11:19:14.328 0.35
11:19:14.328 0.45
11:19:14.328 0.55
11:19:14.328 0.64
11:19:14.337 0.69
11:19:14.345 0.71
11:19:14.414 0.71
11:19:14.414 0.69
11:19:14.414 0.67
11:19:14.426 0.65
11:19:14.483 0.64
11:19:14.483 0.63
11:19:14.483 0.62
11:19:14.483 0.61
11:19:14.540 0.61
11:19:14.540 0.59
11:19:14.540 0.58
11:19:14.555 0.58
11:19:14.565 0.58
11:19:14.573 0.58
11:19:14.634 0.59
11:19:14.634 0.59
11:19:14.634 0.58
11:19:14.648 0.58
11:19:14.648 0.56
11:19:14.665 0.55
11:19:14.675 0.53
11:19:14.741 0.52
11:19:14.741 0.5
11:19:14.741 0.48
11:19:14.741 0.47
11:19:14.753 0.45
11:19:14.824 0.44
11:19:14.824 0.42
11:19:14.824 0.41
11:19:14.835 0.4
11:19:14.835 0.38
11:19:14.844 0.37
11:19:14.904 0.36
11:19:14.904 0.35
11:19:14.904 0.35
11:19:14.904 0.34
11:19:14.914 0.33
11:19:14.922 0.32
11:19:14.984 0.31
11:19:14.984 0.3
11:19:14.984 0.29
11:19:14.984 0.28
11:19:15.051 0.27
11:19:15.051 0.26
11:19:15.051 0.25
11:19:15.051 0.24
11:19:15.072 0.21
11:19:15.135 0.2
11:19:15.135 0.19
11:19:15.135 0.19
11:19:15.207 0.19
11:19:15.207 0.23
11:19:15.218 0.3
11:19:15.284 0.4
11:19:15.284 0.51
11:19:15.284 0.59
11:19:15.294 0.65
11:19:15.302 0.67
11:19:15.365 0.66
11:19:15.365 0.65
11:19:15.365 0.62
11:19:15.378 0.6
11:19:15.395 0.58
11:19:15.411 0.56
11:19:15.424 0.55
11:19:15.432 0.54
11:19:15.506 0.52
11:19:15.506 0.51
11:19:15.506 0.5
11:19:15.511 0.5
11:19:15.571 0.5
11:19:15.571 0.51
11:19:15.571 0.51
11:19:15.571 0.51
11:19:15.581 0.5
11:19:15.650 0.49
11:19:15.650 0.48
11:19:15.650 0.46
11:19:15.650 0.44
11:19:15.662 0.43
11:19:15.677 0.41
11:19:15.740 0.39
11:19:15.740 0.38
11:19:15.740 0.36
11:19:15.740 0.35
11:19:15.748 0.33
11:19:15.809 0.32
11:19:15.809 0.31
11:19:15.809 0.3
11:19:15.821 0.29
11:19:15.821 0.28
11:19:15.899 0.28
11:19:15.899 0.27
11:19:15.899 0.26
11:19:15.899 0.25
11:19:15.911 0.24
11:19:15.911 0.24
11:19:15.930 0.23
11:19:15.939 0.22
11:19:16.011 0.21
11:19:16.011 0.2
11:19:16.011 0.19
11:19:16.011 0.18
11:19:16.022 0.17
11:19:16.030 0.16
11:19:16.096 0.15
11:19:16.096 0.14
11:19:16.096 0.14
11:19:16.096 0.15
11:19:16.115 0.2
11:19:16.125 0.28
11:19:16.137 0.39
11:19:16.199 0.5
11:19:16.199 0.58
11:19:16.211 0.63
11:19:16.288 0.65
11:19:16.288 0.64
11:19:16.288 0.62
11:19:16.298 0.59
11:19:16.311 0.56
11:19:16.319 0.54
11:19:16.382 0.53
11:19:16.382 0.52
11:19:16.382 0.51
11:19:16.382 0.5
11:19:16.459 0.49
11:19:16.459 0.48
11:19:16.459 0.48
11:19:16.459 0.48
11:19:16.483 0.49
11:19:16.547 0.49
11:19:16.547 0.49
11:19:16.547 0.49
11:19:16.559 0.46
11:19:16.575 0.44
11:19:16.590 0.43
11:19:16.603 0.41
11:19:16.673 0.4
11:19:16.673 0.38
11:19:16.673 0.37
11:19:16.673 0.35
11:19:16.692 0.34
11:19:16.708 0.32
11:19:16.725 0.31
11:19:16.743 0.3
11:19:16.755 0.29
11:19:16.829 0.28
11:19:16.829 0.27
11:19:16.829 0.26
11:19:16.829 0.26
11:19:16.847 0.25
11:19:16.856 0.24
11:19:16.926 0.23
11:19:16.926 0.23
11:19:16.926 0.22
11:19:16.926 0.21
11:19:16.939 0.2
11:19:16.947 0.19
11:19:16.976 0.17
11:19:16.985 0.16
11:19:17.057 0.15
11:19:17.057 0.16
11:19:17.057 0.2
11:19:17.057 0.27
11:19:17.078 0.38
11:19:17.088 0.49
11:19:17.103 0.59
11:19:17.111 0.66
11:19:17.174 0.68
11:19:17.174 0.68
11:19:17.248 0.64
11:19:17.248 0.62
11:19:17.263 0.6
11:19:17.273 0.58
11:19:17.339 0.57
11:19:17.339 0.56
11:19:17.339 0.54
11:19:17.339 0.53
11:19:17.364 0.51
11:19:17.439 0.52
11:19:17.439 0.52
11:19:17.439 0.53
11:19:17.451 0.54
11:19:17.515 0.54
11:19:17.515 0.53
11:19:17.515 0.52
11:19:17.515 0.51
11:19:17.530 0.49
11:19:17.538 0.48
11:19:17.603 0.46
11:19:17.603 0.45
11:19:17.603 0.43
11:19:17.614 0.42
11:19:17.614 0.4
11:19:17.624 0.39
11:19:17.689 0.38
11:19:17.689 0.37
11:19:17.689 0.36
11:19:17.701 0.35
11:19:17.701 0.35
11:19:17.762 0.34
11:19:17.762 0.34
11:19:17.762 0.33
11:19:17.773 0.33
11:19:17.842 0.32
11:19:17.842 0.31
11:19:17.842 0.3
11:19:17.842 0.29
11:19:17.854 0.28
11:19:17.928 0.27
11:19:17.928 0.27
11:19:17.928 0.29
11:19:17.941 0.42
11:19:18.018 0.53
11:19:18.018 0.63
11:19:18.018 0.71
11:19:18.018 0.75
11:19:18.031 0.76
11:19:18.031 0.75
11:19:18.096 0.74
11:19:18.096 0.71
11:19:18.096 0.69
11:19:18.096 0.67
11:19:18.110 0.65
11:19:18.173 0.64
11:19:18.173 0.63
11:19:18.184 0.61
11:19:18.256 0.6
11:19:18.256 0.59
11:19:18.256 0.59
11:19:18.266 0.6
11:19:18.272 0.61
11:19:18.336 0.62
11:19:18.336 0.63
11:19:18.336 0.63
11:19:18.341 0.62
11:19:18.402 0.61
11:19:18.402 0.6
11:19:18.402 0.58
11:19:18.402 0.56
11:19:18.464 0.54
11:19:18.464 0.53
11:19:18.464 0.51
11:19:18.476 0.49
11:19:18.485 0.48
11:19:18.502 0.46
11:19:18.563 0.45
11:19:18.563 0.44
11:19:18.563 0.43
11:19:18.575 0.42
11:19:18.602 0.41
11:19:18.670 0.39
11:19:18.670 0.38
11:19:18.670 0.38
11:19:18.736 0.43
11:19:18.736 0.5
11:19:18.736 0.59
11:19:18.753 0.79
11:19:18.825 0.88
11:19:18.825 0.88
11:19:18.825 0.87
11:19:18.842 0.85
11:19:18.842 0.83
11:19:18.913 0.8
11:19:18.913 0.79
11:19:18.913 0.78
11:19:18.925 0.77
11:19:18.935 0.75
11:19:18.941 0.75
11:19:19.005 0.74
11:19:19.005 0.74
11:19:19.005 0.75
11:19:19.005 0.75
11:19:19.080 0.76
11:19:19.080 0.75
11:19:19.080 0.74
11:19:19.095 0.71
11:19:19.170 0.67
11:19:19.170 0.65
11:19:19.177 0.63
11:19:19.249 0.61
11:19:19.249 0.6
11:19:19.249 0.58
11:19:19.318 0.57
11:19:19.318 0.55
11:19:19.318 0.54
11:19:19.331 0.53
11:19:19.390 0.52
11:19:19.390 0.51
11:19:19.390 0.5
11:19:19.403 0.5
11:19:19.410 0.49
11:19:19.470 0.48
11:19:19.475 0.47
11:19:19.538 0.46
11:19:19.538 0.44
11:19:19.538 0.44
11:19:19.546 0.44
11:19:19.553 0.46
11:19:19.610 0.53
11:19:19.610 0.62
11:19:19.610 0.74
11:19:19.621 0.85
11:19:19.686 0.93
11:19:19.686 0.97
11:19:19.686 0.98
11:19:19.696 0.97
11:19:19.696 0.95
11:19:19.758 0.93
11:19:19.758 0.91
11:19:19.758 0.9
11:19:19.768 0.89
11:19:19.780 0.88
11:19:19.794 0.87
11:19:19.852 0.86
11:19:19.852 0.85
11:19:19.852 0.84
11:19:19.852 0.83
11:19:19.861 0.83
11:19:19.923 0.83
11:19:19.923 0.83
11:19:19.923 0.83
11:19:19.935 0.82
11:19:20.010 0.77
11:19:20.010 0.74
11:19:20.022 0.72
11:19:20.087 0.68
11:19:20.087 0.66
11:19:20.091 0.63
11:19:20.156 0.61
11:19:20.156 0.58
11:19:20.156 0.57
11:19:20.170 0.56
11:19:20.232 0.55
11:19:20.232 0.54
11:19:20.232 0.53
11:19:20.232 0.51
11:19:20.317 0.5
11:19:20.317 0.49
11:19:20.317 0.48
11:19:20.328 0.47
11:19:20.336 0.45
11:19:20.344 0.44
11:19:20.402 0.43
11:19:20.402 0.42
11:19:20.402 0.42
11:19:20.462 0.42
11:19:20.462 0.46
11:19:20.462 0.54
11:19:20.472 0.64
11:19:20.539 0.76
11:19:20.539 0.85
11:19:20.539 0.91
11:19:20.539 0.93
11:19:20.556 0.93
11:19:20.565 0.91
11:19:20.626 0.89
11:19:20.626 0.87
11:19:20.626 0.86
11:19:20.637 0.85
11:19:20.645 0.84
11:19:20.716 0.83
11:19:20.716 0.81
11:19:20.726 0.8
11:19:20.805 0.79
11:19:20.805 0.79
11:19:20.805 0.78
11:19:20.818 0.77
11:19:20.880 0.76
11:19:20.880 0.74
11:19:20.880 0.72
11:19:20.880 0.7
11:19:20.891 0.68
11:19:20.907 0.67
11:19:20.968 0.65
11:19:20.968 0.63
11:19:20.968 0.61
11:19:20.968 0.59
11:19:20.978 0.58
11:19:20.986 0.56
11:19:21.054 0.55
11:19:21.054 0.54
11:19:21.054 0.53
11:19:21.054 0.51
11:19:21.068 0.5
11:19:21.079 0.49
11:19:21.146 0.47
11:19:21.146 0.46
11:19:21.146 0.45
11:19:21.156 0.43
11:19:21.169 0.42
11:19:21.232 0.41
11:19:21.232 0.4
11:19:21.232 0.38
11:19:21.302 0.35
11:19:21.302 0.34
11:19:21.317 0.34
11:19:21.386 0.35
11:19:21.386 0.4
11:19:21.386 0.48
11:19:21.386 0.59
11:19:21.399 0.7
11:19:21.414 0.79
11:19:21.434 0.84
11:19:21.442 0.86
11:19:21.451 0.85
11:19:21.519 0.84
11:19:21.519 0.81
11:19:21.519 0.8
11:19:21.536 0.78
11:19:21.548 0.77
11:19:21.555 0.77
11:19:21.626 0.76
11:19:21.626 0.76
11:19:21.626 0.74
11:19:21.626 0.73
11:19:21.632 0.72
11:19:21.695 0.72
11:19:21.695 0.72
11:19:21.695 0.72
11:19:21.695 0.72
11:19:21.705 0.71
11:19:21.722 0.7
11:19:21.731 0.69
11:19:21.792 0.67
11:19:21.792 0.66
11:19:21.792 0.64
11:19:21.792 0.62
11:19:21.821 0.58
11:19:21.831 0.57
11:19:21.894 0.55
11:19:21.894 0.54
11:19:21.894 0.52
11:19:21.894 0.51
11:19:21.917 0.48
11:19:21.983 0.47
11:19:21.983 0.46
11:19:21.983 0.46
11:19:21.983 0.45
11:19:21.994 0.44
11:19:22.053 0.43
11:19:22.053 0.42
11:19:22.053 0.41
11:19:22.053 0.4
11:19:22.062 0.38
11:19:22.124 0.37
11:19:22.124 0.36
11:19:22.124 0.35
11:19:22.124 0.33
11:19:22.134 0.32
11:19:22.201 0.31
11:19:22.201 0.31
11:19:22.201 0.33
11:19:22.213 0.39
11:19:22.223 0.48
11:19:22.297 0.59
11:19:22.297 0.7
11:19:22.297 0.77
11:19:22.376 0.82
11:19:22.376 0.81
11:19:22.376 0.79
11:19:22.376 0.77
11:19:22.387 0.75
11:19:22.399 0.74
11:19:22.415 0.73
11:19:22.492 0.72
11:19:22.492 0.71
11:19:22.492 0.7
11:19:22.502 0.69
11:19:22.502 0.69
11:19:22.511 0.69
11:19:22.572 0.69
11:19:22.572 0.7
11:19:22.572 0.7
11:19:22.595 0.69
11:19:22.595 0.68
11:19:22.664 0.65
11:19:22.664 0.64
11:19:22.664 0.62
11:19:22.677 0.6
11:19:22.677 0.58
11:19:22.688 0.56
11:19:22.705 0.54
11:19:22.777 0.51
11:19:22.777 0.49
11:19:22.777 0.48
11:19:22.788 0.47
11:19:22.860 0.45
11:19:22.860 0.44
11:19:22.860 0.43
11:19:22.860 0.42
11:19:22.869 0.41
11:19:22.944 0.39
11:19:22.944 0.38
11:19:22.944 0.37
11:19:22.944 0.36
11:19:22.956 0.34
11:19:22.965 0.34
11:19:23.029 0.35
11:19:23.029 0.4
11:19:23.029 0.47
11:19:23.029 0.58
11:19:23.038 0.68
11:19:23.104 0.76
11:19:23.104 0.81
11:19:23.104 0.82
11:19:23.104 0.82
11:19:23.115 0.8
11:19:23.177 0.77
11:19:23.177 0.76
11:19:23.177 0.74
11:19:23.246 0.73
11:19:23.246 0.73
11:19:23.246 0.72
11:19:23.260 0.7
11:19:23.268 0.69
11:19:23.330 0.68
11:19:23.330 0.67
11:19:23.342 0.67
11:19:23.349 0.68
11:19:23.410 0.68
11:19:23.410 0.68
11:19:23.410 0.67
11:19:23.410 0.66
11:19:23.419 0.64
11:19:23.429 0.62
11:19:23.491 0.6
11:19:23.491 0.58
11:19:23.491 0.56
11:19:23.572 0.54
11:19:23.572 0.52
11:19:23.572 0.5
11:19:23.572 0.48
11:19:23.584 0.47
11:19:23.584 0.45
11:19:23.651 0.44
11:19:23.651 0.42
11:19:23.651 0.41
11:19:23.651 0.4
11:19:23.663 0.39
11:19:23.671 0.38
11:19:23.738 0.37
11:19:23.738 0.35
11:19:23.738 0.34
11:19:23.738 0.33
11:19:23.755 0.32
11:19:23.765 0.31
11:19:23.779 0.29
11:19:23.842 0.28
11:19:23.842 0.26
11:19:23.842 0.25
11:19:23.855 0.24
11:19:23.855 0.23
11:19:23.873 0.25
11:19:23.881 0.31
11:19:23.948 0.4
11:19:23.948 0.51
11:19:23.948 0.62
11:19:23.948 0.7
11:19:23.964 0.75
11:19:23.972 0.76
11:19:23.979 0.75
11:19:24.043 0.74
11:19:24.043 0.72
11:19:24.043 0.7
11:19:24.043 0.69
11:19:24.113 0.68
11:19:24.113 0.67
11:19:24.113 0.66
11:19:24.132 0.65
11:19:24.140 0.64
11:19:24.207 0.64
11:19:24.207 0.63
11:19:24.207 0.63
11:19:24.220 0.63
11:19:24.291 0.63
11:19:24.291 0.63
11:19:24.291 0.62
11:19:24.357 0.6
11:19:24.357 0.59
11:19:24.357 0.57
11:19:24.357 0.55
11:19:24.428 0.51
11:19:24.428 0.49
11:19:24.428 0.47
11:19:24.442 0.45
11:19:24.503 0.43
11:19:24.503 0.41
11:19:24.503 0.4
11:19:24.515 0.39
11:19:24.524 0.37
11:19:24.593 0.35
11:19:24.593 0.34
11:19:24.593 0.32
11:19:24.599 0.31
11:19:24.676 0.3
11:19:24.676 0.29
11:19:24.676 0.27
11:19:24.691 0.26
11:19:24.691 0.25
11:19:24.702 0.23
11:19:24.713 0.22
11:19:24.713 0.21
11:19:24.778 0.19
11:19:24.778 0.18
11:19:24.778 0.16
11:19:24.788 0.15
11:19:24.788 0.14
11:19:24.861 0.13
11:19:24.861 0.14
11:19:24.861 0.18
11:19:24.874 0.26
11:19:24.874 0.37
11:19:24.887 0.48
11:19:24.903 0.58
11:19:24.915 0.63
11:19:24.923 0.66
11:19:24.989 0.66
11:19:24.989 0.64
11:19:24.989 0.62
11:19:24.989 0.6
11:19:25.007 0.58
11:19:25.021 0.57
11:19:25.031 0.56
11:19:25.095 0.55
11:19:25.095 0.55
11:19:25.095 0.53
11:19:25.095 0.52
11:19:25.110 0.51
11:19:25.124 0.51
11:19:25.133 0.51
11:19:25.209 0.52
11:19:25.209 0.52
11:19:25.209 0.51
11:19:25.209 0.5
11:19:25.226 0.49
11:19:25.255 0.48
11:19:25.266 0.46
11:19:25.290 0.44
11:19:25.377 0.4
11:19:25.377 0.39
11:19:25.377 0.37
11:19:25.393 0.33
11:19:25.457 0.32
11:19:25.457 0.3
11:19:25.457 0.29
11:19:25.457 0.28
11:19:25.528 0.27
11:19:25.528 0.25
11:19:25.528 0.24
11:19:25.528 0.23
11:19:25.542 0.22
11:19:25.550 0.21
11:19:25.559 0.2
11:19:25.628 0.19
11:19:25.628 0.18
11:19:25.628 0.17
11:19:25.628 0.15
11:19:25.642 0.14
11:19:25.705 0.13
11:19:25.705 0.12
11:19:25.705 0.11
11:19:25.705 0.09
11:19:25.723 0.08
11:19:25.731 0.07
11:19:25.741 0.06
11:19:25.807 0.05
11:19:25.807 0.04
11:19:25.807 0.04
11:19:25.807 0.07
11:19:25.822 0.13
11:19:25.831 0.23
11:19:25.896 0.35
11:19:25.896 0.46
11:19:25.896 0.53
11:19:25.896 0.57
11:19:25.962 0.57
11:19:25.962 0.56
11:19:25.962 0.54
11:19:25.962 0.52
11:19:25.973 0.49
11:19:25.981 0.48
11:19:26.047 0.46
11:19:26.047 0.46
11:19:26.047 0.45
11:19:26.047 0.44
11:19:26.070 0.43
11:19:26.077 0.42
11:19:26.141 0.42
11:19:26.141 0.42
11:19:26.141 0.43
11:19:26.155 0.44
11:19:26.164 0.44
11:19:26.224 0.43
11:19:26.224 0.42
11:19:26.224 0.41
11:19:26.237 0.4
11:19:26.299 0.38
11:19:26.299 0.37
11:19:26.299 0.35
11:19:26.377 0.33
11:19:26.377 0.31
11:19:26.377 0.3
11:19:26.377 0.28
11:19:26.394 0.27
11:19:26.405 0.26
11:19:26.479 0.23
11:19:26.479 0.22
11:19:26.479 0.21
11:19:26.548 0.21
11:19:26.548 0.2
11:19:26.548 0.19
11:19:26.548 0.18
11:19:26.558 0.17
11:19:26.568 0.17
11:19:26.636 0.16
11:19:26.636 0.15
11:19:26.636 0.14
11:19:26.636 0.13
11:19:26.645 0.12
11:19:26.654 0.11
11:19:26.720 0.1
11:19:26.720 0.09
11:19:26.720 0.08
11:19:26.720 0.07
11:19:26.734 0.06
11:19:26.744 0.05
11:19:26.820 0.04
11:19:26.820 0.04
11:19:26.820 0.05
11:19:26.820 0.08
11:19:26.830 0.16
11:19:26.835 0.28
11:19:26.905 0.4
11:19:26.905 0.51
11:19:26.905 0.58
11:19:26.905 0.61
11:19:26.914 0.61
11:19:26.924 0.6
11:19:26.985 0.57
11:19:26.985 0.55
11:19:26.985 0.53
11:19:26.996 0.51
11:19:27.004 0.5
11:19:27.068 0.49
11:19:27.068 0.48
11:19:27.068 0.47
11:19:27.068 0.46
11:19:27.079 0.45
11:19:27.143 0.46
11:19:27.143 0.46
11:19:27.143 0.47
11:19:27.166 0.49
11:19:27.228 0.49
11:19:27.228 0.48
11:19:27.228 0.47
11:19:27.239 0.44
11:19:27.303 0.43
11:19:27.303 0.41
11:19:27.303 0.39
11:19:27.382 0.38
11:19:27.382 0.36
11:19:27.382 0.35
11:19:27.382 0.34
11:19:27.394 0.32
11:19:27.412 0.31
11:19:27.422 0.3
11:19:27.490 0.29
11:19:27.490 0.29
11:19:27.490 0.28
11:19:27.503 0.28
11:19:27.513 0.27
11:19:27.524 0.27
11:19:27.540 0.26
11:19:27.603 0.26
11:19:27.603 0.25
11:19:27.603 0.24
11:19:27.616 0.23
11:19:27.616 0.22
11:19:27.634 0.22
11:19:27.641 0.21
11:19:27.707 0.2
11:19:27.707 0.2
11:19:27.707 0.23
11:19:27.707 0.29
11:19:27.723 0.38
11:19:27.730 0.5
11:19:27.800 0.6
11:19:27.800 0.67
11:19:27.800 0.71
11:19:27.800 0.72
11:19:27.811 0.7
11:19:27.822 0.68
11:19:27.896 0.66
11:19:27.896 0.64
11:19:27.896 0.62
11:19:27.896 0.6
11:19:27.908 0.58
11:19:27.919 0.58
11:19:27.982 0.56
11:19:27.982 0.55
11:19:27.982 0.54
11:19:27.982 0.54
11:19:27.995 0.55
11:19:28.009 0.57
11:19:28.024 0.58
11:19:28.032 0.58
11:19:28.099 0.58
11:19:28.099 0.57
11:19:28.099 0.56
11:19:28.099 0.55
11:19:28.112 0.53
11:19:28.177 0.51
11:19:28.177 0.49
11:19:28.177 0.47
11:19:28.189 0.46
11:19:28.254 0.42
11:19:28.254 0.41
11:19:28.254 0.39
11:19:28.281 0.38
11:19:28.289 0.37
11:19:28.356 0.36
11:19:28.356 0.36
11:19:28.356 0.35
11:19:28.434 0.35
11:19:28.434 0.34
11:19:28.434 0.33
11:19:28.434 0.32
11:19:28.445 0.31
11:19:28.457 0.3
11:19:28.521 0.29
11:19:28.521 0.3
11:19:28.536 0.34
11:19:28.550 0.52
11:19:28.611 0.64
11:19:28.611 0.73
11:19:28.611 0.8
11:19:28.621 0.83
11:19:28.682 0.82
11:19:28.682 0.8
11:19:28.682 0.78
11:19:28.694 0.76
11:19:28.703 0.75
11:19:28.765 0.74
11:19:28.765 0.74
11:19:28.765 0.73
11:19:28.765 0.72
11:19:28.837 0.7
11:19:28.837 0.7
11:19:28.837 0.71
11:19:28.854 0.72
11:19:28.920 0.71
11:19:28.920 0.7
11:19:28.920 0.69
11:19:28.949 0.67
11:19:28.960 0.65
11:19:28.971 0.61
11:19:29.035 0.6
11:19:29.035 0.58
11:19:29.035 0.56
11:19:29.035 0.54
11:19:29.066 0.51
11:19:29.133 0.49
11:19:29.133 0.48
11:19:29.133 0.47
11:19:29.149 0.46
11:19:29.216 0.45
11:19:29.216 0.44
11:19:29.216 0.43
11:19:29.216 0.42
11:19:29.226 0.41
11:19:29.243 0.4
11:19:29.307 0.39
11:19:29.307 0.38
11:19:29.325 0.36
11:19:29.397 0.35
11:19:29.397 0.36
11:19:29.405 0.41
11:19:29.415 0.49
11:19:29.483 0.61
11:19:29.483 0.72
11:19:29.483 0.82
11:19:29.495 0.87
11:19:29.506 0.9
11:19:29.568 0.89
11:19:29.568 0.88
11:19:29.577 0.86
11:19:29.586 0.84
11:19:29.656 0.82
11:19:29.656 0.81
11:19:29.656 0.81
11:19:29.656 0.8
11:19:29.670 0.8
11:19:29.735 0.78
11:19:29.735 0.76
11:19:29.735 0.76
11:19:29.805 0.76
11:19:29.805 0.76
11:19:29.805 0.75
11:19:29.805 0.74
11:19:29.825 0.73
11:19:29.888 0.71
11:19:29.888 0.69
11:19:29.888 0.67
11:19:29.888 0.65
11:19:29.897 0.63
11:19:29.964 0.61
11:19:29.964 0.6
11:19:29.964 0.58
11:19:29.964 0.56
11:19:29.976 0.55
11:19:29.986 0.53
11:19:29.999 0.52
11:19:30.062 0.51
11:19:30.062 0.5
11:19:30.062 0.49
11:19:30.062 0.48
11:19:30.078 0.46
11:19:30.089 0.45
11:19:30.158 0.44
11:19:30.158 0.43
11:19:30.158 0.42
11:19:30.158 0.41
11:19:30.170 0.4
11:19:30.179 0.38
11:19:30.251 0.36
11:19:30.251 0.35
11:19:30.261 0.37
11:19:30.268 0.42
11:19:30.343 0.52
11:19:30.343 0.63
11:19:30.343 0.74
11:19:30.425 0.86
11:19:30.425 0.87
11:19:30.425 0.86
11:19:30.494 0.84
11:19:30.494 0.82
11:19:30.494 0.8
11:19:30.494 0.79
11:19:30.505 0.78
11:19:30.516 0.78
11:19:30.530 0.77
11:19:30.596 0.77
11:19:30.596 0.75
11:19:30.596 0.74
11:19:30.667 0.73
11:19:30.667 0.73
11:19:30.667 0.74
11:19:30.667 0.74
11:19:30.676 0.73
11:19:30.686 0.73
11:19:30.755 0.71
11:19:30.755 0.7
11:19:30.755 0.68
11:19:30.755 0.66
11:19:30.765 0.65
11:19:30.770 0.63
11:19:30.831 0.61
11:19:30.831 0.59
11:19:30.831 0.57
11:19:30.898 0.54
